rank,team,conference,record,adj_o,adj_o_rank,adj_d,adj_d_rank,barthag,barthag_rank,efg_pct,efg_pct_d,to_pct,to_pct_d,conf_record,sos,raw_o,raw_d,adj_o_no_opp,adj_d_no_opp,off_ftrate,def_ftrate,adj_tempo,est_ppg,est_opp_ppg,est_total,wins,losses,games
1,Michigan,B10,11-0,126.48085605514206,4,89.80989944131267,1,0.980876922930637,1,27.92957655342017,3.0704234465798304,17.27197728442592,2.7280227155740824,2-0,0.6682956007820429,112.90587093714343,104.34994237777354,116.36551698492524,101.79336396297062,128.19862970886282,79.48852417181382,74.67959159012301,94.45538674167146,67.06966611027246,161.52505285194394,11,0,11
2,Connecticut,BE,12-1,121.69104702294845,20,91.6412272776692,2,0.9630823116377172,2,27.259326459591982,3.7406735404080194,17.25932645959198,2.7406735404080194,2-0,0.6227592819449057,111.36392830642642,103.66069373211305,112.865817089583,102.88459489843245,123.84794595578907,91.17473814278685,66.42183534986927,80.82942688911481,60.86978509497292,141.69921198408773,12,1,13
3,Arizona,B12,11-0,122.53266187387385,13,92.40937965452264,5,0.9624827413228304,3,26.786802529052604,4.213197470947396,13.816299436660103,4.1837005633398965,0-0,0.6060374395375953,112.71311427103282,105.11865927860217,115.10537837898542,102.84675239163639,124.92137708470449,90.9417940797876,71.79726814037097,87.97510380511932,66.34741009741104,154.32251390253037,11,0,11
4,Houston,B12,11-1,121.54727485232993,22,91.69435456297016,3,0.9623551852177781,4,25.936558055988325,5.063441944011675,13.96629914722029,4.033700852779713,0-0,0.5366882340542352,109.55395225668072,107.3185892620976,114.03273249610963,103.62230069041041,131.4797966715586,101.6716773142676,64.6521040599832,78.58287061960215,59.282329529181425,137.86520014878357,11,1,12
5,Vanderbilt,SEC,12-0,127.29615608680919,2,96.0946610262551,15,0.9620792853569009,5,26.93138953050297,4.068610469497026,13.934962695860001,4.065037304139999,0-0,0.5738967906031204,109.71570301871827,106.05358186643105,114.3366294011275,103.23094201490437,141.15984481881605,95.40150170415532,71.59510593812675,91.13781780551423,68.79907436263113,159.93689216814536,12,0,12
6,Gonzaga,WCC,12-1,124.47973456610148,8,94.32070806923468,10,0.9604784288229042,6,28.341000548803663,2.6589994511963315,16.341000548803667,1.6589994511963315,0-0,0.6258832288148205,113.40253044533091,105.85770656607536,111.03036491638349,105.27907730973207,125.13195056894449,94.61283662355376,71.60735775555062,89.1366488639081,67.54056686470538,156.67721572861348,12,1,13
7,Iowa St.,B12,12-0,123.47972953813083,10,94.03561671000708,9,0.9582191765695176,7,26.58129947330775,4.418700526692257,13.590796561002506,4.409203438997494,0-0,0.5053588179129431,108.42161215254663,107.15092519131021,113.78088216641986,103.85057948917276,127.42682689648358,90.66581204707113,70.71649868790472,87.32054131866057,66.49869565689526,153.81923697555584,12,0,12
8,Duke,ACC,11-1,122.36748357370115,14,93.31823983613472,7,0.9575743632329127,8,25.567848713783874,5.432151286216117,14.262276192797627,3.7377238072023715,0-0,0.5724344543945094,109.79229087853368,104.67585314222238,113.81471871767542,102.1939028207454,121.65208310012622,91.64057977830221,69.86344642713145,85.49014133074158,65.19533849466002,150.68547982540161,11,1,12
9,Purdue,B10,11-1,127.11926862267251,3,97.08261677364968,22,0.9568918988183772,9,24.89103020817782,6.108969791822177,14.92819114020825,5.071808859791751,2-0,0.6382181817368315,113.54029309503214,105.7078603684348,116.43270764980724,102.52246302862609,127.347415570533,91.05113760794971,65.64663036859642,83.449516399989,63.73146658555879,147.1809829855478,11,1,12
10,Michigan St.,B10,11-1,118.38567026534363,44,92.46322179167561,6,0.9449074414288312,10,24.22242390475069,6.777576095249306,14.250356366585585,5.749643633414411,2-0,0.6175160267306417,113.09494832062818,106.10432568466386,115.85989140930134,103.2023019596274,122.01871462044116,86.93777134992767,66.3404287834937,78.53756127224197,61.34049780363039,139.87805907587236,11,1,12
11,Alabama,SEC,9-3,129.25547972653516,1,101.34223334585596,54,0.9425572691942952,11,22.325757875048428,8.674242124951563,12.42515932972486,5.574840670275143,0-0,0.6971609733342904,114.77715492968066,102.72988254350086,117.17468078084799,102.07619151367463,130.2573414757101,103.53322678669913,74.39799168301349,96.16348105678681,75.39658633603004,171.56006739281685,9,3,12
12,Louisville,ACC,10-2,125.28212670567751,6,98.57748653818697,31,0.940298542506627,12,23.61551081765996,7.384489182340036,12.887338883994389,5.112661116005612,0-0,0.5331483637429227,107.42660212176759,105.08219022800098,112.94928058589905,102.65476430972369,123.831140668415,101.46337822641608,71.92393153180957,90.1078310333864,70.9008039235044,161.0086349568908,10,2,12
13,Kansas,B12,9-3,117.09587604038938,55,92.36895486800555,4,0.9386486662834242,13,21.828859882234976,9.171140117765033,11.893496048572802,6.106503951427199,0-0,0.6853882402389359,113.13877765562093,101.96444059153926,116.10803878661716,101.12160337275147,118.28236431929932,96.77918424845447,67.36099389604901,78.8769459120918,62.220646050481484,141.0975919625733,9,3,12
14,Tennessee,SEC,9-3,120.37161153551224,28,95.04198871785866,12,0.9380250748262531,14,21.545110459537426,9.454889540462583,11.547787326052966,6.452212673947033,0-0,0.5352961014187199,109.78971573526167,106.45356124285321,115.30524702448878,103.63143978778093,122.21244242402585,96.42355853941291,67.72913758260152,81.52665438728172,64.3711192999591,145.89777368724083,9,3,12
15,Illinois,B10,8-3,125.83423245192589,5,99.72912497400159,36,0.9354651283818234,15,21.924013121313017,9.075986878686983,13.21038123885728,6.7896187611427194,1-1,0.6452279536471068,113.97192959289018,104.63284728548409,115.53217029860348,102.88033580834384,124.58410730096614,101.65434081983936,68.56035216245262,86.27239290995962,68.37463929070798,154.64703220066758,8,3,11
16,BYU,B12,11-1,122.87860399205664,12,97.41354588287595,23,0.9352732262594905,16,23.990807619931022,7.00919238006897,12.006814042254272,5.993185957745729,0-0,0.612502009373033,110.92469773453274,104.79768851886901,114.84135476288267,102.88522221716359,120.55303775804217,93.76482658606841,71.07117133700764,87.33126317971768,69.23294809987333,156.564211279591,11,1,12
17,Florida,SEC,8-4,119.49424498385139,32,94.90640765557329,11,0.9339700138480653,17,20.983855938755205,10.016144061244798,12.001716713454297,5.998283286545704,0-0,0.6192330274067407,112.24726068324236,104.96285746238254,115.72954320120495,102.95900390208544,121.02650662897906,93.61008332727502,70.83728485938316,84.64647870977998,67.22912234078588,151.87560105056588,8,4,12
18,Iowa,B10,10-2,121.34191736451164,23,96.74557344694365,19,0.9311871049957248,18,22.765849351062077,8.23415064893792,12.777196023166956,7.2228039768330445,1-1,0.4962322465710831,108.13255559746626,107.21767633345546,113.82435734624615,103.91709753134752,113.1149352721814,99.48377315618774,64.3112918199166,78.03655457617315,62.218328062315685,140.25488263848882,10,2,12
19,St. John's,BE,7-4,119.97788833448033,30,95.76844201604602,14,0.9303322219826768,19,22.02369566629316,8.976304333706834,15.048187800945094,4.951812199054908,1-0,0.6776040781693433,113.82754970316752,104.04916447863533,113.8100650306917,102.92032750730749,124.5544715247357,102.71278324827907,71.58565630300593,85.88695878272534,68.55646774835023,154.44342653107557,7,4,11
20,Indiana,B10,9-3,119.17841067209372,37,96.26786382979523,16,0.9209336962039368,20,20.595256497997728,10.404743502002278,11.64716378844138,8.35283621155862,1-1,0.5055568808496208,109.75950422413388,108.50594577039959,114.72780095324423,103.32206555968018,109.18531380129835,98.45641976013762,69.52719666453903,82.86140796965857,66.93234700969236,149.79375497935092,9,3,12
21,North Carolina,ACC,11-1,118.32712446781382,46,96.89801704042308,21,0.90868062585361,21,23.35599570634346,7.644004293656544,11.376021848540246,6.623978151459755,0-0,0.5386088129334493,108.88966350274539,105.84466845150097,112.88233098727048,103.10190914633807,122.64460340589909,99.28285417656583,67.82570657480109,80.25620823993906,65.72176471463813,145.97797295457718,11,1,12
22,Arkansas,SEC,9-3,122.26565128225207,17,100.2763121077597,43,0.9072126430916151,22,20.544041120767005,10.455958879232998,10.580769444549524,7.419230555450479,0-0,0.5701072406225088,112.27273661464103,106.05479630954228,116.35205618421709,103.7257409205062,128.40902285965745,102.73785998076832,72.4424067474047,88.57218041425247,72.6425738884003,161.21475430265278,9,3,12
23,Kentucky,SEC,8-4,118.09035510143251,49,96.85839722161154,20,0.9071480667254779,23,18.7345256488324,12.265474351167601,9.751640623324626,8.248359376675374,0-0,0.5581996083422954,110.28734132419761,105.14542448710932,115.75285641895366,102.81143686728223,113.39479242731977,100.13162524990425,69.6166686151058,82.21057117736595,67.42958941967214,149.6401605970381,8,4,12
24,Nebraska,B10,12-0,119.21138348003262,35,97.84658564806344,26,0.9064653347696594,24,23.491241179215237,7.50875882078476,12.504709219613336,7.495290780386667,2-0,0.5347499274563924,109.96906370473675,107.96374525200387,114.17700577532091,103.86820392926238,147.37994429068777,104.9784832612309,69.45030381701054,82.79266801134416,67.95475100715149,150.74741901849563,12,0,12
25,N.C. State,ACC,9-4,122.33107344104742,15,100.56145126775226,45,0.9049575183266708,25,20.658889674733917,10.34111032526608,11.658889674733924,6.341110325266081,0-0,0.605099745179386,110.23376980059915,105.28906787907809,113.41098318249846,102.89035801845884,120.82454084786966,107.17373218412612,71.10113167366495,86.97877760512691,71.50032987883296,158.47910748395987,9,4,13
26,Virginia,ACC,10-1,123.9341463959733,9,101.9058086037109,66,0.9046993599891564,26,23.4885862957137,7.511413704286297,11.917333462711577,6.082666537288422,0-0,0.45771908464532135,107.17300537553616,109.46673002311941,112.20377359721164,104.56376627988625,145.40941707671567,93.3262404815797,67.86611876072735,84.10929497818493,69.15951709107395,153.2688120692589,10,1,11
27,Georgia,SEC,10-1,120.56237648482745,25,99.99771601451653,40,0.8957368873238819,27,22.038547300906014,8.96145269909398,10.089063725130707,7.910936274869292,0-0,0.40427751140050017,103.99667477062752,108.62042412146234,112.43519484426554,104.47625676546404,124.83069553640476,106.1315637330841,76.74801912743892,92.52923576507031,76.74626621382319,169.2755019788935,10,1,11
28,UCLA,B10,9-3,121.59333512766767,21,101.17997189987798,51,0.8922069821444172,28,20.02836585599913,10.971634144000872,12.058162411696083,7.941837588303916,2-0,0.5297851081404578,109.69830600243382,106.6055711152477,114.2336906865319,103.46362462853402,126.9648232221566,102.68986661025706,66.22401819982758,80.52399238472398,67.00544300555562,147.52943539027962,9,3,12
29,Saint Mary's,WCC,10-2,115.87832894224897,70,96.57989264903458,18,0.8904120693120652,29,24.54203589180354,6.457964108196465,13.712114776729413,4.287885223270587,0-0,0.5521259296223421,111.21480078737623,105.7537957799565,110.39134697611536,104.77251789190373,107.87499292663858,103.6246319969777,68.42523455270391,79.29001837448763,66.08501807585155,145.37503645033917,10,2,12
30,Clemson,ACC,10-3,117.84506777470526,50,98.83815266335912,32,0.8831600600574799,30,21.420563232195093,9.579436767804902,11.4205632321951,6.579436767804902,0-0,0.5300495689778708,108.27943331762286,106.10213384079995,111.72172777985794,103.43391077954573,122.65818300225415,100.62588892733498,65.51230469431638,77.20301986778856,64.75115172705341,141.95417159484197,10,3,13
31,Utah St.,MWC,10-1,118.56756507072824,42,99.4936890849614,35,0.8825674036757308,31,24.763107798531063,6.236892201468936,14.954917318939982,5.045082681060019,1-0,0.5227060594052121,111.31250902904408,107.85447190208409,111.2999896701044,105.3175851361597,100.8731982896059,95.48800751819313,69.98544569127701,82.98003886004403,69.63110174080366,152.6111406008477,10,1,11
32,Texas Tech,B12,9-3,122.25972105285953,18,102.73548956536064,77,0.8808899905815835,32,19.2395545947186,11.760445405281402,9.327122856836716,8.672877143163285,0-0,0.6581164054908726,114.93590222870189,104.9504331398904,116.78992331660949,102.42979473795683,122.70451112939591,99.99525315695807,67.93562569418098,83.05790646922044,69.79399764620776,152.8519041154282,9,3,12
33,LSU,SEC,10-1,120.48083392477255,26,101.73364934814772,63,0.8749031043056332,33,21.259455539075777,9.740544460924223,9.336217368352099,8.6637826316479,0-0,0.4730668790111954,107.54194012443686,108.39211038483936,113.80888131896428,104.47491977791634,114.5475474300589,105.86870586452265,68.83995047914158,82.93894641067024,70.03339383188843,152.9723402425587,10,1,11
34,Saint Louis,A10,11-1,118.28781913907855,47,99.89418692168007,38,0.8747478760439157,34,26.125608493891555,4.874391506108449,14.125608493891551,3.8743915061084486,0-0,0.43635707001816376,105.83236631253936,108.90635015975461,104.48324344694119,104.03007381036045,0.0,0.0,74.01802857490424,87.5543117709942,73.93970782035741,161.49401959135162,11,1,12
35,Miami FL,ACC,11-2,117.35508855541269,53,99.46183307637648,34,0.8701683911707173,35,22.116003308859998,8.88399669114,11.116003308860002,6.883996691140001,0-0,0.41425569975350035,106.64231436919037,110.57341445682489,110.95638166881487,105.46463723174256,102.06212472577648,92.95995492940719,71.63491689813088,84.06722016239779,71.24940146961995,155.31662163201776,11,2,13
36,Ohio St.,B10,8-3,119.37197691388157,33,101.71985248341909,62,0.8629786046034568,36,18.565173795744755,12.434826204255248,10.21653367814525,9.78346632185475,1-1,0.5470483909479639,109.91508818086903,107.28417203027638,114.64661873652598,103.27865697050267,122.61449814564094,106.18237845591092,69.54802665875155,83.0208543271451,70.74415012241106,153.76500444955616,8,3,11
37,Villanova,BE,9-2,119.23147212730251,34,101.65777501263283,61,0.8622053944973646,37,21.015639235812756,9.984360764187239,12.01563923581276,7.984360764187241,0-0,0.5353446738849851,112.08278893214687,108.03336848693907,113.24076870187503,103.68598902875776,105.853467325386,92.93345752026649,63.73970882543291,75.99779316221982,64.79636979146586,140.79416295368569,9,2,11
38,USC,B10,12-1,118.51859155275602,43,101.27579117930085,53,0.8591270063141372,38,20.84758205874817,10.152417941251834,9.847582058748168,10.152417941251834,1-1,0.5298744492025861,110.10520274063374,106.80344778256101,114.90990788657467,103.14916137237277,122.20506824186863,103.42065200878407,71.75856221646069,85.04723725745734,72.6740516236114,157.72128888106874,12,1,13
39,Baylor,B12,9-2,125.16015199857449,7,107.29187823301243,151,0.8546408261822149,39,18.5035216015936,12.496478398406405,8.231693535259174,9.768306464740828,0-0,0.5326407290141817,107.5946078768276,105.5254254269098,110.4546023883954,98.14238855188793,127.86581145609682,111.81567551794663,71.0057894099867,88.87095395332706,76.18344511215217,165.05439906547923,9,2,11
40,Texas,SEC,8-4,118.97869973112307,39,102.56113149817938,74,0.846522494455582,40,17.198798748938206,13.801201251061794,8.213598904983767,9.786401095016233,0-0,0.44786083099326124,109.21696361254422,108.24103144910173,114.85301125496585,104.24115604977729,120.57825823506161,107.56497138109319,68.97659618076881,82.06745725466622,70.74317751192648,152.8106347665927,8,4,12
41,Auburn,SEC,8-4,122.3305876456636,16,105.5152332030348,126,0.845603354528078,41,17.98692053929844,14.013079460701563,8.045386690098958,9.954613309901042,0-0,0.6385949721535056,113.97731791890658,103.14962478088283,113.52879262456744,99.18334083708423,121.7514393279974,106.7898619945106,69.32993758811766,84.81172006591615,73.15364532562083,157.96536539153698,8,4,12
42,Boise St.,MWC,8-4,113.81295736452479,84,98.19800071377747,29,0.8451504924339757,42,21.967462458377895,9.032537541622103,12.967462458377897,7.032537541622103,0-1,0.5842861216721681,113.09861814747865,103.4144778803064,112.49695161292466,104.51360021202093,111.32724219389198,93.8596179739352,67.35820750133244,76.66236798499963,66.14441308294614,142.8067810679458,8,4,12
43,Seton Hall,BE,11-1,111.47204831408767,110,96.27974809092827,17,0.8435565798244514,43,21.841532749364728,9.158467250635274,11.841532749364726,8.158467250635274,1-0,0.45986452994737986,108.1049845163365,109.2060698853391,111.92196617980852,104.47375304604283,118.67179605515423,91.17207795381495,66.66926900258339,74.31759975320884,64.18900424975061,138.50660400295945,11,1,12
44,Texas A&M,SEC,9-3,118.33321271335137,45,102.29922213082241,71,0.8421652616787425,44,18.206725299120187,12.793274700879813,8.229404754383413,9.770595245616587,0-0,0.42548691137313127,106.98747417041373,111.24137114935645,113.97777388858346,105.62311312256398,95.97292880335415,102.8542825789182,73.68637112840442,87.19545028812433,75.38058448078863,162.57603476891296,9,3,12
45,Missouri,SEC,10-2,119.86614253183728,31,103.89725930323891,95,0.8381043875018446,45,18.433131546754566,12.56686845324543,8.169979048200613,9.830020951799387,0-0,0.35456754106993477,105.0363647278394,111.65680736385714,113.81605142443676,105.23690400109024,112.2093358899264,107.96783634622855,69.10986689691131,82.83933155821475,71.80325761400722,154.64258917222196,10,2,12
46,Creighton,BE,7-5,115.2624498968716,73,100.03326244586876,41,0.8361220811914271,46,17.62573981096985,13.37426018903015,11.67307960088802,8.326920399111986,2-0,0.5980384992201269,112.11075127672429,105.64295805653448,113.42794053990889,103.25573191991406,102.20155149955585,101.19204646208684,66.79866795065547,76.99378117840189,66.82088682142361,143.8146679998255,7,5,12
47,SMU,ACC,10-2,119.10560517390309,38,103.740081110962,91,0.8303912770035619,47,19.840102320963794,11.159897679036206,8.891120465563738,9.108879534436262,0-0,0.5492764340655445,110.52812602165638,106.89577209402181,113.59197065945483,103.59155916106815,120.13028716878989,105.98575879027261,70.09213969143008,83.48366715881532,72.71364256829835,156.1973097271137,10,2,12
48,Wisconsin,B10,7-4,116.66737901420979,59,101.88692417673275,65,0.8260415557815652,48,16.828234571680625,14.17176542831938,8.919282905281552,11.080717094718448,1-1,0.5686366830705156,110.31765375783293,106.16542133657408,114.55268874234201,103.59035091188514,104.44812160106399,107.45807655355092,70.85235457129589,82.66158504818557,72.18928477948609,154.85086982767166,7,4,11
49,VCU,A10,8-4,115.90976858381612,69,101.64144295983961,60,0.8191571875222912,49,21.214220169384625,9.78577983061537,12.23085872408967,5.769141275910331,0-0,0.5040431289464532,108.73203615338315,108.34131010215121,109.13551323720252,106.57559241027792,110.8224201260626,100.19598964349784,70.40187189948303,81.60264679736545,71.5574784693724,153.16012526673785,8,4,12
50,UCF,B12,10-1,120.0746189651384,29,105.34246962528835,122,0.8183654410324952,50,18.907532767863188,11.09246723213681,8.171347389461202,9.828652610538798,0-0,0.4990498492414112,109.58929120023278,108.82793275386763,113.85754151112482,103.43425581466481,126.7450737911638,109.16291239626067,69.90478623443605,83.9379057093936,73.63942820563354,157.57733391502714,10,1,11
51,Santa Clara,WCC,9-4,116.78232955652544,57,102.54973987505747,73,0.816765303847028,51,20.806632480842403,10.193367519157603,11.8066324808424,6.1933675191576025,0-0,0.5204776519872982,108.86762385704844,106.1898931536799,109.91399836181769,104.86531512754863,108.42586935751021,90.50577441270431,70.10233275536908,81.8671372651872,71.8897598869782,153.75689715216538,9,4,13
52,West Virginia,B12,8-4,111.41964916990196,112,97.92941442099918,27,0.8151989697257584,52,17.08625124832679,13.91374875167321,8.091020363998261,9.908979636001739,0-0,0.4035002589101599,105.00731885595782,110.37802711080549,111.71106117711177,105.09518700245067,114.10839942223086,95.72768542813604,64.92706987460808,72.34151347058543,63.58269932891666,135.92421279950207,8,4,12
53,Butler,BE,9-3,116.02796963561931,65,102.08140353103961,70,0.813467148785752,53,19.594909735215523,11.40509026478448,10.613659514267217,9.38634048573278,1-1,0.5657174258044543,110.66929260754495,106.89728401954922,111.73154192719309,103.80870099070482,116.40654588698696,97.87778350833658,70.64587248143518,81.96897147157796,72.1162981657975,154.08526963737546,9,3,12
54,San Diego St.,MWC,6-4,113.30466958281949,90,99.97310111538262,39,0.8083866661948517,54,18.532701651829598,11.467298348170404,12.532701651829596,7.467298348170405,1-0,0.580120541422735,111.6492186225341,105.36758749880387,108.67949965247473,101.24693716048004,101.79295201017528,99.22981563729343,68.56520116076332,77.68757462399839,68.54675788641542,146.23433251041382,6,4,10
55,Wake Forest,ACC,9-4,114.34380987420641,81,101.39581965363293,55,0.799319412037506,55,17.409226518101356,13.590773481898642,8.409226518101358,9.590773481898642,0-0,0.5222360672884967,110.46355267453366,107.43955834647048,113.71604662019749,103.73503250403553,111.81327610567388,99.42810900576826,70.98126334607602,81.16268080674692,71.9720337702575,153.13471457700442,9,4,13
56,Washington,B10,7-4,114.48380731182326,79,101.54975700838692,58,0.7987775871026187,56,16.225271140146987,14.77472885985301,8.504318905014898,11.495681094985105,1-1,0.5699283984536642,112.15439523566823,108.71671056139888,115.48388821650147,104.40436901863332,115.39563408066327,101.76814148620387,68.73718029702451,78.69294104282608,69.8024395660452,148.49538060887127,7,4,11
57,TCU,B12,9-3,110.81043937103442,124,98.32189920533716,30,0.7982034290928356,57,17.3394521807746,13.660547819225403,7.370312375212322,10.629687624787678,0-0,0.45796427576264276,106.68846833140351,107.47800203339712,113.2963298930537,104.10203529119451,113.71366741672831,84.86385201367064,67.81714516775276,75.14847652927908,66.67910511577504,141.82758164505412,9,3,12
58,Oklahoma,SEC,8-3,118.87809589342785,40,105.70944739336029,131,0.7941540520975691,58,16.91137691483496,14.088623085165041,6.938104914860705,11.061895085139293,0-0,0.495118800501735,108.12205346234246,107.72418229441291,113.63888454606708,104.5829944278434,127.943248654795,106.79036194780895,67.56200861017237,80.3164293831267,71.41942594966771,151.73585533279442,8,3,11
59,Akron,MAC,9-3,123.34898007846857,11,109.73098527383493,201,0.7933661756085593,59,23.802021460695986,6.1979785393040085,14.802021460695991,3.1979785393040103,1-0,0.42286286149647606,109.34506644211528,109.54536652495567,104.03784247080651,106.63686205075881,123.47415110363005,111.81000709757365,73.0422480169694,90.09686795531718,80.14997841517868,170.24684637049586,9,3,12
60,Kansas St.,B12,8-4,117.80152162221141,51,104.84648625202286,112,0.7924562848215736,60,16.111471092788673,14.888528907211326,7.1262845453023305,10.873715454697672,0-0,0.5746737859846263,109.81582424919725,106.83881919942309,113.59225602381947,103.00120367833065,121.10906164717528,103.54288179570402,73.67866053927942,86.79458322613499,77.24948669299019,164.04406991912518,8,4,12
61,California,ACC,12-1,113.50431691398835,88,101.21204753539917,52,0.7888763070295091,61,20.606634714052323,10.39336528594768,8.60663471405232,9.39336528594768,0-0,0.3791857916200889,106.93631362089707,111.11735958237028,111.54003606157592,105.22548148049093,119.64254374789756,106.59222468127686,68.39892103324884,77.6357280953274,69.22794846987195,146.86367656519934,12,1,13
62,Oklahoma St.,B12,11-1,117.2864135344555,54,104.60199964565074,106,0.788556613876667,62,18.814298855236206,12.1857011447638,6.880979030297079,11.119020969702923,0-0,0.4661068784442414,106.79004489675322,108.38255530364894,113.13884649567926,103.65040271180081,0.0,0.0,74.46533708437813,87.33772319260999,77.89223163313385,165.22995482574385,11,1,12
63,Northwestern,B10,7-5,115.92412857352983,67,103.43203428792398,87,0.7877211942674935,63,14.931560171943415,16.068439828056587,6.9813424359064244,13.018657564093576,0-2,0.5401084482492876,109.84503790368224,107.99289020807504,114.30046697136825,103.58075971763759,115.8798247242152,108.83636791644619,68.06943825258192,78.90890311920256,70.40560471300778,149.31450783221032,7,5,12
64,Oregon,B10,6-6,116.87887837036223,56,104.36813012811422,101,0.7861644620840029,64,14.10935763885711,16.890642361142888,7.186936493160228,12.81306350683977,0-2,0.6394888790465357,112.11465967573851,104.36754682737224,115.23833224031686,102.48576889153922,117.37838411816229,108.16767439709247,68.86941687457704,80.49380198321462,71.87772262213201,152.37152460534662,6,6,12
65,Dayton,A10,9-4,112.28566719224379,101,100.41700099483191,44,0.7832519893053398,65,20.66556940255715,10.334430597442852,11.66556940255715,6.334430597442849,0-0,0.48555772366882344,107.33438889591557,107.96639198595773,109.46722531841064,107.058074275316,112.73950313473674,98.65170786042854,69.27518615112461,77.78610496845916,69.56406436654646,147.3501693350056,9,4,13
66,South Florida,Amer,7-5,115.95298733580444,66,103.80038650018287,92,0.7812941493011457,66,20.40084751086174,10.599152489138266,12.400847510861734,5.599152489138267,0-0,0.5675522211126686,111.61239781277187,108.64915125458032,107.2001843907147,104.4198138712249,116.883379616697,98.82073981198525,73.18348122589212,84.85843271775951,75.96473636676478,160.8231690845243,7,5,12
67,McNeese St.,Slnd,10-2,112.97123832933087,93,101.14527503515299,49,0.7810194591929815,67,25.162163216619398,5.837836783380601,18.125335006599908,3.8746649934000965,3-1,0.4172042643074003,108.87421847896299,108.910095854572,106.70384695834545,108.50455770889266,107.95365639570142,105.47830494206751,67.7134226623904,76.4966920968762,68.48892758759038,144.9856196844666,10,2,12
68,Utah Valley,WAC,10-3,111.4056008278183,115,99.85730987334628,37,0.778768881945116,68,24.707156112903064,6.292843887096933,14.707156112903066,3.2928438870969323,0-0,0.4206273829384376,108.39605576594458,106.03730994445036,105.40433974938284,107.05775752363864,110.56396559387468,113.47404164252573,70.70654128167773,78.77104713942245,70.60565002837043,149.37669716779288,10,3,13
69,Stanford,ACC,10-2,114.42492742101112,80,102.61534383295546,76,0.7777689730570584,69,18.78931388977391,12.210686110226085,7.888563253653283,10.111436746346719,0-0,0.49042372875069984,106.76651929683402,106.81501597932323,111.8521296279166,103.6653232869249,114.3155030653621,99.14916571485566,71.04824660072376,81.29690460677915,72.90640253661877,154.20330714339792,10,2,12
70,Syracuse,ACC,8-4,113.0429206980518,92,101.43786455179611,56,0.7765534209163363,70,17.0192593833598,13.980740616640198,8.045578212530978,9.954421787469025,0-0,0.4916751093470985,107.0705018032012,105.85936974981193,111.70091848365595,103.23197245375202,109.23202292906052,94.88069814296728,68.55449723066795,77.49600593941209,69.54021804500977,147.03622398442184,8,4,12
71,Grand Canyon,MWC,7-4,109.1554312544028,147,97.96796682473487,28,0.7761763491843351,71,19.695467616111344,11.304532383888652,12.72083363703766,7.279166362962338,1-0,0.5055614196298898,109.19646481542713,108.40359023767641,110.02934000691027,106.85218785863296,90.53267164272383,89.69873922492879,68.55832846667634,74.83513909861055,67.16520048782624,142.00033958643678,7,4,11
72,Virginia Tech,ACC,11-2,114.99198016161645,75,103.24234864721555,85,0.7754782825956212,72,18.597317158385376,12.402682841614622,7.597317158385377,10.402682841614624,0-0,0.5059459620561224,108.8509289892904,108.60054591184351,113.11621533580738,104.07890160800218,105.71365240316698,109.57123614580675,69.47549483098932,79.8912472332361,71.72813259778822,151.61937983102433,11,2,13
73,Illinois St.,MVC,10-3,114.18175061602136,82,102.7862806258555,78,0.7701406120881542,73,22.65746178427013,8.342538215729869,14.657461784270131,5.342538215729868,2-0,0.4224466022064815,107.9674868412846,109.42658208149898,107.88565158990019,107.33680195256271,114.52892529122764,114.68724442816362,67.61260483260916,77.2012558349658,69.49648174169639,146.69773757666218,10,3,13
74,Yale,Ivy,11-1,122.06113199487032,19,110.0433365340481,215,0.7670894710454367,74,23.355904484301615,4.6440955156983925,11.419831206076752,2.580168793923246,0-0,0.3799377657752403,108.18930565381636,109.83762543638872,107.24963872668916,109.21961018060418,0.0,0.0,66.760431539178,81.4885384613811,73.46540635024043,154.9539448116215,11,1,12
75,Memphis,Amer,4-7,109.70817624893986,142,99.03777512727055,33,0.7643556221119859,75,17.47326139036056,13.526738609639441,12.34207675071444,5.65792324928556,0-0,0.7263746328666743,116.37421763283857,103.8902485398934,112.30564089925845,106.19173365620783,108.48928752126852,97.30404329874587,69.6605945254933,76.42336781808754,68.99030295847778,145.4136707765653,4,7,11
76,Belmont,MVC,12-1,114.89859768617734,76,103.80419824476098,93,0.7627382567800882,76,24.272779186057278,6.727220813942732,14.272779186057267,5.727220813942732,2-0,0.3693040304418012,104.32688589764847,108.92510072399642,106.48776449312675,106.84805464512604,0.0,0.0,71.1025253729241,81.69580457294823,73.80740639514163,155.50321096808986,12,1,13
77,Notre Dame,ACC,9-4,113.77530992241631,85,102.83852102881781,80,0.7617419779690273,77,16.78238675134195,14.217613248658052,7.782386751341949,10.217613248658052,0-0,0.5161324521637091,109.47370515054277,107.1750589435736,112.66723651001811,103.61923316628415,111.68784321791964,99.62245401173894,66.5684384767668,75.73844718745445,68.45799760148547,144.1964447889399,9,4,13
78,Nevada,MWC,9-3,116.28461945543522,62,105.2371976877292,120,0.7591409760615747,78,20.285453848460893,10.71454615153911,12.28545384846089,7.714546151539113,1-0,0.5898937992543388,110.23934306435189,106.19877598145324,110.5626130895698,105.50219035707627,123.42291070544115,129.05240963621878,66.91165869499811,77.80796768479819,70.41595453699381,148.223922221792,9,3,12
79,George Washington,A10,8-4,118.12696144812637,48,106.9412769676033,144,0.7584172041563193,79,20.63951070048685,10.360489299513153,11.639510700486845,6.360489299513155,0-0,0.4726548156706514,107.16565351911918,108.29918498645218,104.90125450369494,103.45412454382534,109.60522826149794,101.7165666943409,71.70519169929146,84.70316415492712,76.68244765529016,161.38561181021728,8,4,12
80,New Mexico,MWC,10-2,112.00196385583055,104,101.59747037320854,59,0.7542157481909466,80,20.55895785336471,10.441042146635283,11.558957853364717,8.441042146635285,1-0,0.4638897062470937,108.89694766212415,108.09302295101533,110.75290294266357,105.8055071438164,109.53665811109437,99.94197553396762,70.65538551957518,79.13541935183231,71.78408437032667,150.919503722159,10,2,12
81,Northern Iowa,MVC,9-2,104.95261442242975,224,95.3131579522032,13,0.7517415988985775,81,22.200961400020763,8.799038599979234,14.03088251509489,5.9691174849051105,1-0,0.4136481926807521,108.25390203999254,110.45852820841522,108.72502576350222,107.52200708222455,0.0,0.0,63.75462287095057,66.91214351822296,60.766544398820585,127.67868791704355,9,2,11
82,Tulsa,Amer,11-1,120.39465945932511,27,109.38531888978144,195,0.750790481628598,82,24.20340745941037,6.79659254058962,12.264295204562202,5.735704795437801,0-0,0.4134567347886758,106.58166863212348,106.82769561952156,108.08885598510743,107.4156924824364,113.65388803437436,102.04616577244781,68.18721520696242,82.09376554321955,74.58680279619739,156.68056833941694,11,1,12
83,Mississippi,SEC,7-5,112.56578330041438,98,102.39036394390615,72,0.7483006712807054,83,13.812594951253784,17.187405048746218,5.847898478181783,12.152101521818215,0-0,0.5430510231554789,109.24582831569053,106.30064415562545,115.08466804812602,103.62169489581171,101.16410427883937,96.87873656434053,66.4062235072271,74.75068565113409,67.99357393045358,142.74425958158767,7,5,12
84,Colorado,B12,10-2,118.63429701526456,41,108.04912774295667,163,0.7455059375625771,84,17.448335673162145,13.551664326837859,6.6089109591993,11.3910890408007,0-0,0.515801889894408,109.49631189161693,108.7160600977402,114.27866517367677,104.2725678501063,0.0,0.0,69.9032488066747,82.92922781262983,75.52985059960078,158.4590784122306,10,2,12
85,Cincinnati,B12,7-5,102.81321216621659,271,93.66300295486121,8,0.7449622411139587,85,13.863920947114197,17.1360790528858,6.035414821511871,11.964585178488127,0-0,0.4692466150582408,106.94743394149852,107.48225425211443,113.6539588082442,103.36310413552299,99.6155791066912,92.87762325839326,71.32252750746748,73.32898152856073,66.80282104680097,140.1318025753617,7,5,12
86,Arizona St.,B12,9-4,115.9161107296657,68,105.61704541209039,128,0.7446045586506752,86,15.478518021566387,15.521481978433613,6.478518021566386,11.521481978433613,0-0,0.5873859734067741,110.53345788963284,105.66533573645681,114.93308482571781,102.72073190409864,117.10585076974826,107.93968613792357,70.03704949422917,81.18422384352145,73.97106236960823,155.15528621312967,9,4,13
87,Minnesota,B10,7-5,111.38239282081443,116,101.76830147012427,64,0.7384855008990944,87,14.492603447825104,16.507396552174896,7.511398694671852,12.488601305328146,1-1,0.5077631470353287,109.48301886137263,108.47323288075758,113.80200586957311,104.5923810938026,111.54410050500296,102.7500640771773,64.15267495366561,71.45478442195207,65.28708764799534,136.74187206994742,7,5,12
88,San Francisco,WCC,8-5,114.56835247562609,78,104.88792096980654,113,0.7340387822030707,88,18.06743231779635,12.932567682203654,10.067432317796348,7.932567682203652,0-0,0.48035326028624276,108.71818285344307,108.41518024928007,109.99699297428283,105.60676733079097,120.03740348762767,106.08973156529808,65.73955372478726,75.31672362731784,68.95285115675837,144.2695747840762,8,5,13
89,Colorado St.,MWC,9-3,121.30782528863676,24,111.16205395435175,247,0.7319298156579692,89,20.050143185806117,10.949856814193888,11.050143185806114,8.949856814193886,0-1,0.46166725585552165,110.94536776401783,110.43707048744895,110.39728378361704,106.8868611705783,104.67364241511672,137.50421749673268,62.93412426524847,76.34401751062117,69.95886517143428,146.30288268205544,9,3,12
90,George Mason,A10,11-1,111.20753643255341,119,102.03867653173222,68,0.728995403763352,90,22.691046790453377,8.308953209546623,10.788592925385021,7.2114070746149785,0-0,0.34019093426505004,107.29572821441616,113.06807007984172,109.09148899503909,108.53812333027847,99.72590951260175,107.16328702189315,66.52537275154982,73.98122813957173,67.88160991348305,141.86283805305476,11,1,12
91,UC San Diego,BW,10-2,113.50615607381275,87,104.49639223835771,103,0.7213367577654208,91,25.403369407613678,6.59663059238632,15.403369407613678,4.596630592386321,1-0,0.4464758349402089,108.84383903121733,109.35883035841734,103.45452371615586,105.7740229313718,0.0,0.0,70.36536359166288,79.86901942025868,73.5292663386906,153.39828575894927,10,2,12
92,Providence,BE,7-6,119.20124556063526,36,109.86945752311783,208,0.7185910287913019,92,14.401559062659276,16.598440937340722,7.401559062659276,12.598440937340724,0-2,0.5402872993234002,108.60171408304066,106.82778197415617,111.67344009001569,103.22421538958022,122.18398308211691,116.25886965318489,73.0848825012885,87.11809025806265,80.29796393557375,167.4160541936364,7,6,13
93,Wichita St.,Amer,8-5,111.79780197093979,106,103.68826246971857,90,0.7039094185373845,93,19.211003688667738,11.788996311332257,11.211003688667743,6.78899631133226,0-0,0.44367108531098887,107.65776768547092,108.39343604357835,109.09495698650116,107.87057526440167,103.83651059575827,93.34634542402588,65.9689415843019,73.75182667474279,68.40204929842628,142.15387597316908,8,5,13
94,Hawaii,BW,10-2,104.86774526365491,228,97.6861472194747,25,0.6933467519647237,94,22.964143944623217,7.035856055376784,14.964143944623213,5.035856055376783,2-0,0.27041928103936524,103.70630007878245,112.36837874403015,105.72896008330865,110.79008994537107,80.21895420059643,73.6857893467771,70.66699161731952,74.10688075473901,69.0318614668686,143.13874222160763,10,2,12
95,Pittsburgh,ACC,7-6,112.73354910966248,97,105.03431904328151,115,0.6928567562469026,95,13.094471411544289,17.905528588455713,6.094471411544286,11.905528588455713,0-0,0.5411284874959169,109.10928386053222,107.59862192017924,112.9509332438913,103.55660104429484,107.51788439724069,105.39069938302549,65.08110930548575,73.36824432001289,68.35749998483068,141.72574430484357,7,6,13
96,Wyoming,MWC,9-3,113.46335772456126,89,105.72453135309219,132,0.692619509942021,96,18.632840768626657,12.367159231373348,9.632840768626654,10.367159231373348,0-1,0.38859760989416275,106.65745697308449,109.39375436522359,109.83111521578547,106.61478529225896,113.56449409532333,97.7037790091746,69.71399902717548,79.09984410030127,73.70479875898052,152.80464285928178,9,3,12
97,Liberty,CUSA,8-3,112.85804919350574,95,105.18525599397032,118,0.6920431049439071,97,22.019936596512224,8.980063403487778,14.019936596512226,5.980063403487774,0-0,0.38153539441195483,109.2884300756603,108.93269966104162,107.06411895643741,108.02171411577831,95.13625253217138,103.31001265444033,65.33452504311659,73.73527041350384,68.72228741904682,142.45755783255066,8,3,11
98,Bowling Green,MAC,9-3,107.19990692614223,182,100.05417966298094,42,0.6885417729093751,98,22.104852641704035,7.895147358295967,13.104852641704033,4.895147358295967,1-0,0.3636034034508043,106.88564682086704,109.97357967006353,103.9616412084722,106.46930157777231,132.21712968387294,93.94890549182935,69.00104317463718,73.96905406127827,69.03842770728252,143.0074817685608,9,3,12
99,South Carolina,SEC,7-4,109.91772093792665,136,102.59149847927222,75,0.6885256966352861,99,13.447536992006274,17.552463007993726,4.530409239297144,13.469590760702854,0-0,0.42219664179175354,106.41736293219006,110.14168928384484,113.73672331758222,105.09011532475215,100.70185034796896,93.74498298442286,67.33828886260147,74.01671243636922,69.08335959444373,143.10007203081295,7,4,11
100,Richmond,A10,10-2,111.46225371965613,111,104.05510770419248,97,0.6880034356411893,100,20.640166903632007,10.359833096367993,9.760444652647312,8.239555347352688,0-0,0.35931244716136845,105.94841743185161,111.9256044979912,108.79468431980932,107.9777214939266,0.0,0.0,69.9036775028603,77.91621437760833,72.73834691479266,150.65456129240098,10,2,12
101,High Point,BSth,10-3,117.76874639032212,52,110.06951168464744,216,0.6851463631032264,101,25.027501624577198,5.972498375422802,13.086900146110649,2.913099853889349,0-0,0.2886872894566591,103.17455556089995,110.39572088801953,99.64106197674795,108.04623679386849,0.0,0.0,71.36316415818852,84.0435038135663,78.54908631163146,162.59259012519777,10,3,13
102,Murray St.,MVC,10-3,116.61333171499071,60,109.20586917602651,192,0.6802087180020305,102,20.793056758669096,10.206943241330901,12.7930567586691,7.206943241330901,2-0,0.4472171997907317,107.4960831996895,110.64913738574401,107.44790460288634,107.37457004973753,116.97096735444455,113.25626042632706,72.95232110278205,85.0721322013724,79.66821634437895,164.74034854575135,10,3,13
103,Xavier,BE,9-4,110.42778166468212,125,104.07450980354844,98,0.6640574812254632,103,15.231586224808707,15.768413775191291,7.231586224808713,12.768413775191288,1-1,0.5537477158841265,108.1446259656027,105.35192460236226,112.04767673526658,102.71200634433218,106.93850946466516,98.88229021365427,71.01925290386072,78.42498553656374,73.91293932583538,152.33792486239912,9,4,13
104,William & Mary,CAA,9-3,110.23663482929783,129,103.90211215882181,96,0.663866042904652,104,22.13822160132143,7.861778398678571,13.13822160132143,4.861778398678572,0-0,0.46984438640053816,108.96298223396647,105.28848679337007,107.26524474146706,108.57938347816068,92.46374906910795,97.95026045412928,75.72605109201959,83.47785041295712,78.6809665390769,162.15881695203404,9,3,12
105,UAB,Amer,9-4,111.17199391860842,120,104.79624819892209,108,0.6635592382769848,105,19.678127700178884,11.321872299821116,10.678127700178882,7.321872299821115,0-0,0.40315994018379075,106.95721300826114,110.3382560652271,108.3789644205979,108.38017822983743,106.87049806900947,106.20885581681131,70.37495056613487,78.23723576360713,73.75030786515542,151.98754362876255,9,4,13
106,Mississippi St.,SEC,7-5,111.1637511139564,122,104.79973302440278,109,0.6632834481385007,106,12.261838233487449,18.738161766512555,4.357900743544542,13.642099256455458,0-0,0.5881400584126841,110.56046002201481,105.96186798619452,115.8519006469853,103.45898832060593,121.66458239771026,110.61767924116018,69.71521854942544,77.49805203683407,73.06136291717678,150.55941495401083,7,5,12
107,Miami OH,MAC,12-0,114.89089333231536,77,108.4722432737575,174,0.6595117057655718,107,24.37992688062014,5.620073119379854,12.379926880620149,5.620073119379854,1-0,0.2361063727117091,101.48448873660622,111.24033401916066,101.93153124828848,106.59421924329482,0.0,0.0,71.76689487553129,82.45362663936154,77.84716079940812,160.30078743876965,12,0,12
108,Davidson,A10,8-3,111.32504416518516,117,105.1734686259318,116,0.6578429890410057,108,18.170300380548206,11.829699619451793,10.105664214210377,7.894335785789625,0-0,0.4312589748627369,107.03741545423895,108.61091403948615,108.85933942473704,106.74594062390291,103.33424150842185,108.65953197434537,65.39211461797402,72.79780047900807,68.77515515156826,141.57295563057633,8,3,11
109,Seattle,WCC,10-2,107.38737761049609,178,101.52826877387812,57,0.6559306548339845,109,20.056132662530874,10.94386733746912,9.290267743268842,8.709732256731158,0-0,0.36311174927475465,108.24451538681406,110.82556178538661,109.17799648346305,106.59529048607422,109.05565110430807,92.0689477831809,69.40642541942883,74.53374015110937,70.46714214617897,145.00088229728834,10,2,12
110,St. Thomas,Sum,10-4,111.40844305818737,114,105.55018446340192,127,0.6504893338169968,110,23.475883611745513,7.5241163882544875,12.47588361174551,3.524116388254488,0-0,0.3747647577203842,107.19251502395252,109.5461109296077,102.15629761366321,107.52753289679492,107.19208503504126,114.38470282744633,69.43706609231208,77.35875423872943,73.29095134640971,150.64970558513915,10,4,14
111,Cal Baptist,WAC,10-3,108.34145128833872,162,102.81100056173939,79,0.6462390079917317,111,22.29066414448199,8.709335855518018,12.290664144481983,5.709335855518017,0-0,0.454504251064289,107.89222986903347,109.58381548754012,105.78053280760426,108.17155117682401,99.9450086336879,112.25693865956183,67.91652962171521,73.58175385684072,69.82566365089554,143.40741750773626,10,3,13
112,Georgetown,BE,8-4,112.3382558155308,100,106.62032953603222,140,0.6458308440090825,112,14.604016414390859,16.39598358560914,6.6160656405285,13.383934359471501,1-1,0.5052638247752964,107.56721919691853,108.218366831168,111.50499784835772,104.20218285665611,108.48316902391106,104.35026172446756,68.51611341697154,76.9698067652167,73.05210591045663,150.02191267567332,8,4,12
113,Florida St.,ACC,6-6,109.52072156823274,144,104.07501455305692,99,0.6425665315353559,113,12.375006782638224,18.624993217361776,5.443432128836853,12.556567871163146,0-0,0.5101147132260901,108.39632941162176,107.30433428057461,112.300146621707,103.94844473015554,101.8504682229208,108.0608571340983,75.05901884664651,82.20517904288306,78.1176847880291,160.32286383091215,6,6,12
114,Utah,B12,8-4,115.28548971191094,72,109.75230257317315,204,0.6377550655627949,114,12.600755941311103,18.3992440586889,4.404690865645393,13.595309134354604,0-0,0.4752976846033323,107.88137991941994,109.07647401086024,114.11092246515526,103.75439027361287,116.16367178295508,107.09460058255024,69.71855060278037,80.37537248246178,76.51771460719434,156.89308708965612,8,4,12
115,Hofstra,CAA,9-4,110.19015530214747,130,105.1930514574466,119,0.6303499913362752,115,21.642274450389017,9.35772554961098,12.64227445038902,5.357725549610979,0-0,0.46980846119757397,109.62792595248278,106.91300980344445,107.22018528428711,108.75885405476959,120.90582487052149,105.69200596283842,67.41656446968737,74.28641708852088,70.9175413534409,145.2039584419618,9,4,13
116,St. Bonaventure,A10,11-2,111.85342318459026,105,106.83742553950923,143,0.6289305305922402,116,20.21745982182109,10.78254017817891,9.21745982182109,8.78254017817891,0-0,0.42509374255999166,107.2535293406475,108.81759042057746,108.67785354516772,106.80512730411346,110.31712702339004,108.13114953075683,68.31395013011972,76.41149173315276,72.98486560336413,149.39635733651687,11,2,13
117,Rhode Island,A10,8-4,106.8135300776645,191,102.06686486050519,69,0.6277904394125388,117,18.045182131415896,12.9548178685841,9.213978031826835,8.786021968173166,0-0,0.4388366263307413,107.76419349268345,110.79814098191993,108.73067910229288,107.91335125136979,0.0,0.0,67.90463287042934,72.5313354551837,69.3081298658833,141.839465321067,8,4,12
118,Bradley,MVC,9-4,107.82584373285887,172,103.20239900029091,83,0.6233966751512328,118,18.792030612286908,12.207969387713094,11.792030612286904,8.207969387713094,2-0,0.40406074354815635,106.58865956744347,109.53046707515342,107.76274197293692,107.3521104939358,0.0,0.0,68.98575541653383,74.38447283336399,71.19495455833605,145.57942739170005,9,4,13
119,Florida Atlantic,Amer,8-4,113.72753916814187,86,109.08710767019372,189,0.617529884211307,119,18.114024744432797,12.885975255567205,9.85021012283478,8.14978987716522,0-0,0.466333560081237,108.70590302500054,105.93734654458487,109.63169207591385,106.82587266135694,110.6452601064318,106.84948497701157,69.18918419899497,78.68715656002982,75.4764798632863,154.16363642331612,8,4,12
120,Maryland,B10,6-6,111.16685953169396,121,106.83339886917241,142,0.6123638928098629,120,11.636197564876362,19.363802435123645,4.816295884389087,15.183704115610913,0-2,0.5939640834579186,112.47048104303148,105.57095251822022,115.18911296773459,103.32287888370003,114.90188637601509,111.77740189513051,69.07415824764242,76.78757247185665,73.79427099622717,150.58184346808383,6,6,12
121,New Mexico St.,CUSA,7-3,109.82268352611135,138,105.66808510128709,130,0.6090898765384344,121,19.811381569659797,10.1886184303402,12.8113815696598,7.188618430340201,1-0,0.381741437420883,106.21907546547065,107.36267131440039,102.53507491292105,103.72950703935281,0.0,0.0,67.70260616948998,74.35281891244853,71.54004750296592,145.89286641541446,7,3,10
122,Kent St.,MAC,10-2,112.47280798517878,99,108.21892708497225,167,0.6090652856238292,122,21.14824161209164,8.851758387908363,12.11108068006121,5.888919319938788,1-0,0.3322181708599119,106.49082964101851,111.21856002212311,108.30157169279342,110.61432325202142,0.0,0.0,73.80830506934512,83.01427323775951,79.87455584564847,162.88882908340798,10,2,12
123,Columbia,Ivy,9-3,109.8055104299319,139,105.83273246490077,134,0.6043885898789507,123,20.114826828008724,7.885173171991281,9.2898596991285,4.710140300871498,0-0,0.3536920438751621,106.32016610681043,110.29290629132542,102.72423460699427,106.44045173514174,101.43278311566294,109.86073467706879,68.13389538969399,74.81477160844932,72.1079632256902,146.92273483413953,9,3,12
124,UC Irvine,BW,8-5,101.16930973107722,294,97.61741727147583,24,0.6013286938022739,124,20.14964988955719,11.850350110442811,13.387213287584352,6.612786712415648,2-0,0.4505057964976251,108.1439660839153,106.86617454099624,107.27348265492573,108.5530891418599,111.19815210806462,108.16666984950457,69.08110844916372,69.88888057259581,67.43519389058089,137.32407446317671,8,5,13
125,UNC Wilmington,CAA,10-2,112.23038107921207,102,108.36460111781403,170,0.5994324634521582,125,23.00025587125517,7.999744128744824,12.000255871255176,5.999744128744824,0-0,0.28211019822565503,101.68449475409234,110.17673619679134,101.09803271707462,106.48843248704362,0.0,0.0,64.42037627252265,72.29923378331448,69.80888378631408,142.10811756962858,10,2,12
126,DePaul,BE,8-5,105.63191894308864,208,102.01602522209203,67,0.5988204664995125,126,13.726498235478235,17.273501764521768,5.726498235478237,14.273501764521765,0-2,0.45314867306548323,107.01900156057732,109.29791950393134,111.43072947954782,105.1193240053299,99.94736790980335,105.57980095281717,68.64296479775143,72.50888093529366,70.02682428126586,142.5357052165595,8,5,13
127,Youngstown St.,Horz,8-5,106.93240355981732,188,103.53358611936189,89,0.5918116053894773,127,20.98089159260237,10.019108407397628,13.980891592602369,6.019108407397628,2-1,0.39188112191117946,107.98551383096515,109.8359987223916,103.96521910794196,108.25567586610646,136.99319267815656,111.15180103150135,67.82980532983568,72.53204116913837,70.22662991576094,142.7586710848993,8,5,13
128,Penn St.,B10,8-4,113.82596553907956,83,110.25127662806308,224,0.5907214370203885,128,13.322178929052237,17.67782107094776,4.369576057050951,15.630423942949049,0-2,0.438307474547067,107.59186786306294,109.20540618363835,113.23201347516923,104.47365975986818,117.01926687901913,118.96795254582148,68.68334522411429,78.17948086588737,75.7242649404458,153.90374580633318,8,4,12
129,Stephen F. Austin,Slnd,9-2,108.58529138958588,155,105.18359557708544,117,0.5904990937689938,129,22.484303207318295,8.51569679268171,15.484303207318288,6.5156967926817115,2-0,0.31710881990348433,103.35340629197056,108.46587255904853,104.83802186305982,109.68131340899758,0.0,0.0,67.22802589752841,72.99974781629749,70.71285487451455,143.71260269081205,9,2,11
130,Middle Tennessee,CUSA,7-4,108.08485136110386,166,104.80668499820109,110,0.5876329690530327,130,18.47959401754951,12.520405982450493,12.449852926317549,7.550147073682453,1-0,0.481133943840376,113.57016646280898,104.35101873780306,109.05101850095882,106.0616003018467,98.41114110749157,89.78072276195591,67.1587441297334,72.58842876860642,70.38685340879756,142.97528217740398,7,4,11
131,UNLV,MWC,5-6,111.41786580664251,113,108.11751972057594,166,0.585596888908212,131,13.532850786537116,17.467149213462886,8.532850786537116,11.467149213462882,1-0,0.497607057928116,108.29746320793902,107.24113728869452,107.05658822266457,102.03302357517035,110.20919665470001,106.20652739712237,73.466672560112,81.85499864563104,79.43034419323006,161.28534283886108,5,6,11
132,North Dakota St.,Sum,10-4,108.46881040245452,160,105.2961564820468,121,0.5845271957885207,132,22.20685698542156,8.79314301457844,11.633129118576118,4.366870881423881,0-0,0.3621398167792297,106.4637054153406,108.13413647383891,105.61254184193629,110.7144775417048,0.0,0.0,69.22590426733966,75.08851484912533,72.89221648344987,147.9807313325752,10,4,14
133,Troy,SB,8-5,109.53355054304892,143,106.42784480056443,137,0.5819496537708475,133,20.095793434934734,9.904206565065264,13.095793434934736,4.904206565065267,1-0,0.46134942008822555,109.02541824638455,107.22557485458783,105.79298064106038,109.32824583471202,123.36345914080515,103.54441988476574,68.57178794003225,75.10911400156755,72.97947604578968,148.08859004735723,8,5,13
134,Pacific,WCC,9-4,108.80603233496316,152,105.75677977169235,133,0.5810014454240866,134,17.713940029544094,13.286059970455906,8.713940029544096,9.286059970455904,0-0,0.39609012440487823,108.04249458030586,108.27872857394586,108.95086720115549,106.26026899941513,100.1369820019251,107.37108150638211,66.39800941201287,72.2450395906066,70.22039658665001,142.4654361772566,9,4,13
135,Loyola Marymount,WCC,8-4,103.68004670146001,246,101.00111986111045,48,0.5746986654244003,135,17.14936791330869,13.850632086691306,8.179010332884811,9.820989667115187,0-0,0.4130650235814388,107.94453466014315,110.03244220736993,109.27499306284452,107.63145644356963,97.8628749119649,108.43095257103717,67.94623100510779,70.44668403797766,68.6264542185759,139.07313825655356,8,4,12
136,Quinnipiac,MAAC,9-4,107.24361423889175,181,104.52365436251424,104,0.5733250951609642,136,22.718601220897128,8.28139877910287,15.718601220897133,4.2813987791028705,2-0,0.43792597504083547,107.13381685435115,108.13241236030551,103.7453639779588,110.19430882801308,113.81764728197986,113.05995942947041,71.99742162988643,77.21263711470381,75.25433613434456,152.46697324904835,9,4,13
137,Western Kentucky,CUSA,7-4,109.35183043795905,145,106.60317244630492,139,0.572671194858865,137,18.600530749884072,12.399469250115926,11.600530749884076,8.399469250115926,0-0,0.42542932468544986,109.90433368776063,107.70068034683067,107.80651244259383,107.5464554464906,106.84516074226488,88.83728964915204,71.99391766597512,78.72666677174095,76.74780020031024,155.47446697205118,7,4,11
138,Southern Illinois,MVC,6-7,108.1096110133272,165,105.41627515119032,124,0.5720276665436517,138,15.380594756325628,15.619405243674375,9.380594756325628,10.619405243674372,0-2,0.5106541555517067,108.47594188200725,106.64655141795764,108.11786128535267,106.26937684911911,0.0,0.0,71.22581093214788,77.00194713983295,75.08359683089961,152.08554397073254,6,7,13
139,Elon,CAA,7-5,116.73583511252136,58,114.03793375433393,307,0.5668222960984465,139,19.22054591838439,11.77945408161561,11.220545918384389,6.77945408161561,0-0,0.4241690966656036,107.14942500284741,109.01235593579922,102.86715417830199,105.40255000346188,120.08470068495362,112.61729597249287,67.919294424446,79.28615554890918,77.45375998216075,156.73991553106993,7,5,12
140,Winthrop,BSth,8-6,116.48753801617153,61,113.9307584665015,304,0.5634619532769048,140,19.625683239343243,11.37431676065676,11.538114977225124,4.461885022774878,0-0,0.35404945777032,106.67640236752963,108.03843112702194,105.70797605134321,110.19631892657318,123.48891290026395,102.912713695669,69.33286388304792,80.7641461734659,78.99145768850357,159.75560386196946,8,6,14
141,Oakland,Horz,6-7,116.04454943235756,64,113.57945012167019,297,0.5614190186540755,141,18.080871360641588,12.919128639358409,14.080871360641591,5.9191286393584095,2-0,0.6087264495389537,113.6869978412147,102.28036351130264,109.38111343565049,108.32328287940068,116.17298044121466,110.52516531926476,72.6432028576284,84.29847744936836,82.50775035646373,166.8062278058321,6,7,13
142,Wright St.,Horz,5-7,108.47320703604785,159,106.1954512863747,135,0.5607119959266282,142,18.081158010863426,12.918841989136578,13.26736223132312,6.732637768676877,1-1,0.43653905772535406,109.66178312771406,108.51836716966723,107.91535080496945,111.67113601187506,104.94515206580816,105.97368620644357,66.84072485790783,72.50427785951346,70.98180940593926,143.48608726545274,5,7,12
143,Marquette,BE,5-8,106.74597056426039,192,104.56489782128737,105,0.559074284474009,143,9.572865475655485,21.427134524344513,4.572865475655485,15.427134524344513,0-2,0.56379248677719,110.7251599539114,106.64808715709172,113.36491979987139,103.21839580986949,103.33087884039239,108.02829385171131,71.72237618748194,76.56074657307757,74.99642937543983,151.5571759485174,5,8,13
144,Duquesne,A10,6-5,110.09330535211168,132,107.96934784169454,162,0.5557744113184898,144,15.315943580033203,15.684056419966794,7.3819286777745035,10.618071322225497,0-0,0.41533360491706617,108.1701247473181,110.22062314357586,105.61326184940194,103.32311082909266,111.19298537611242,112.19455797069998,73.2505365240862,80.64393684752231,79.08812657559814,159.73206342312045,6,5,11
145,Sam Houston St.,CUSA,7-4,110.30394731572392,126,108.31040457059088,169,0.5522442760945495,145,19.091381436836336,11.908618563163662,11.091381436836336,8.908618563163664,0-1,0.5132287709496537,112.968123548999,106.952507579209,104.58649965954862,103.66803253874558,117.47134621075905,110.90290405860411,72.33388674236664,79.78713232371551,78.3451253722903,158.1322576960058,7,4,11
146,Boston College,ACC,5-6,102.9229954098881,268,101.15542410906475,50,0.5496392940391353,146,11.215995319054961,19.784004680945035,4.379395385071431,13.62060461492857,0-0,0.42303293671506753,106.89304041304572,110.84146722057804,111.92077976968304,106.00385643237269,96.05843952695955,93.10530649290972,67.10185805570158,69.06324228661937,67.87716910130757,136.94041138792693,5,6,11
147,Iona,MAAC,9-4,108.94397289477703,151,107.16237079113503,150,0.5472631154151628,147,22.758231954700758,8.241768045299244,14.758231954700754,5.241768045299243,1-1,0.4519117929543589,107.56655315900373,108.78633174014544,103.26462105779626,110.24982740931071,102.97639791700433,100.98321823679777,72.8353543905613,79.3497287450679,78.05209253905056,157.40182128411845,9,4,13
148,Arkansas St.,SB,9-4,111.3142599065238,118,109.58917101712484,196,0.5447837319563829,148,21.310711143085715,8.689288856914281,13.310711143085719,4.6892888569142785,2-0,0.4652602126405171,107.40725991215545,106.5203501217873,101.31027900970575,105.04368753808374,106.49543034905682,111.10184969399452,74.011367910347,82.3852064360972,81.10844455138364,163.49365098748086,9,4,13
149,Massachusetts,MAC,8-4,104.57266958272652,232,103.05594066549833,81,0.5419060123838997,149,18.960922520634078,11.039077479365925,9.960922520634075,8.039077479365924,0-1,0.36796946779744816,105.54594277286562,111.40742377960105,103.34273929857092,107.03382608136064,0.0,0.0,72.93973711511121,76.2750302878946,75.16873220291947,151.44376249081407,8,4,12
150,Idaho,BSky,8-4,111.7596248293485,107,110.31631133200429,225,0.5373014298842633,150,19.960923437248592,11.039076562751411,11.257534990939801,6.742465009060199,0-0,0.39654453638935117,109.09110435681337,107.95165588523079,107.02750033111263,109.57151228741492,0.0,0.0,66.59855923437988,74.43029994209438,73.46907394762779,147.89937388972217,8,4,12
151,Temple,Amer,7-5,116.13288338295888,63,114.63530740704334,319,0.5372461687624899,151,17.47699612065706,13.52300387934294,9.638703207777898,8.361296792222099,0-0,0.42847167970992106,104.8465881709713,106.74203511970218,106.56911812888414,107.62376283664751,109.8209614510426,109.8384387105745,66.78001957034107,77.55356225074131,76.5534807209442,154.1070429716855,7,5,12
152,Siena,MAAC,9-3,105.2038501799387,221,103.85731579986842,94,0.5369678923339034,152,21.75558687531482,9.244413124685183,14.703679584871159,5.296320415128842,2-0,0.28678917753674876,101.98086413872652,112.12106310817579,102.55841393781964,110.39880453773652,0.0,0.0,66.4237116178354,69.88030205438208,68.98588394092918,138.86618599531127,9,3,12
153,Georgia Tech,ACC,8-4,104.500377008008,233,103.19054607576362,82,0.5362001832470595,153,13.125084054253644,17.87491594574636,4.2234473970855735,13.776552602914428,0-0,0.3753603497021259,104.33406054983662,109.67197979566113,110.89198949802487,104.58485620350693,114.15934255974004,97.16878503418774,71.31373587293558,74.52312284571273,73.58903347430996,148.11215632002268,8,4,12
154,Washington St.,WCC,5-8,109.94581247519159,135,108.75597956384539,183,0.5312420560182622,154,12.325089277541924,18.674910722458076,7.325089277541924,10.674910722458078,0-0,0.5545230907477173,110.87524956315997,106.54202728356222,110.26995740674475,104.60786705229779,96.84556041062064,99.52667670394888,68.44332601640788,75.25057087378383,74.43620965522064,149.68678052900447,5,8,13
155,Oregon St.,WCC,7-6,108.5826170918167,156,107.48367996928987,154,0.5292120835774327,155,14.33923114058135,16.66076885941865,7.339231140581352,10.660768859418647,0-0,0.4832412795220608,107.15579371367403,107.755228599484,108.94397601380935,105.87351825959148,115.70777395321278,116.09885377603979,66.12966996113903,71.80532631798572,71.07860282577829,142.88392914376402,7,6,13
156,Marist,MAAC,8-3,101.68566556096594,288,100.71985857588973,47,0.5274096514618559,156,20.47130401931632,8.528695980683677,14.471304019316323,5.528695980683679,2-0,0.2917395691615843,102.99770379203346,110.98409890146817,102.6908773126939,110.65237020018485,0.0,0.0,68.10096314459192,69.2489176270064,68.59119376805175,137.84011139505816,8,3,11
157,Lipscomb,ASun,7-5,106.27297053574236,196,105.39978914754772,123,0.5237019557866629,157,20.21159457967068,10.788405420329324,13.040100705273005,4.959899294726997,0-0,0.4407919094949557,110.20504413714018,106.38516444058402,106.17250285767048,110.39199145741688,103.16447097855135,106.50723621702068,72.14955188096837,76.67547201213166,76.04547555344122,152.72094756557289,7,5,12
158,Drake,MVC,7-6,110.268399470609,128,109.37280401979643,194,0.5234288063185265,158,15.386939661211947,15.613060338788054,9.386939661211946,10.613060338788054,1-1,0.3896165947513658,106.93517381339804,108.73243977871662,107.43402636115134,106.45174234694666,94.12175433637579,95.12465265173842,66.37727950668477,73.19316372415385,72.59869182851884,145.7918555526727,7,6,13
159,Furman,SC,9-4,108.57430862856219,157,107.96262595169094,161,0.5162371745872791,159,21.685822210138483,9.314177789861514,12.685822210138483,5.314177789861511,0-0,0.4072634083395105,110.49780176130328,109.29456732321299,106.73945361096457,112.14269515908134,0.0,0.0,68.469632970502,74.34043061823662,73.92161373443874,148.26204435267536,9,4,13
160,Montana St.,BSky,5-7,106.95621590271904,187,106.49480113395558,138,0.5124271726808814,160,16.830121085757693,14.169878914242307,10.830121085757693,7.169878914242307,0-0,0.4873116658773084,111.8629851558309,107.50070902181282,104.82968983316401,105.74018941129879,104.97881111447417,95.02063334287895,66.0314569984336,70.62474771095572,70.32006881633525,140.94481652729098,5,7,12
161,Kennesaw St.,CUSA,8-4,109.00734553619014,150,108.58646425643754,178,0.5111201293544185,161,18.24417908710143,12.75582091289857,10.244179087101429,9.755820912898571,0-1,0.3283960598569294,107.12908638908023,109.0910388972987,106.64731346782527,107.9683446463881,103.03783579877299,102.87935915784017,74.16211709125703,80.84215523462048,80.53002076711518,161.37217600173565,8,4,12
162,Northern Colorado,BSky,9-3,110.2715495414921,127,110.09080075932354,217,0.5047162090342339,162,19.857190707068696,11.142809292931302,10.696615421031538,7.303384578968461,0-0,0.3178648210046094,107.9331871575991,110.57161592645419,107.37056120074045,110.2162655671145,140.70402079171225,129.48459711504677,68.93948870273371,76.02064243848635,75.89603515222294,151.9166775907093,9,3,12
163,East Tennessee St.,SC,8-5,109.90574302780729,137,109.77617357602446,207,0.5033913260623628,163,20.493091668600865,10.506908331399126,12.493091668600872,5.506908331399129,0-0,0.34077209703929473,104.40094489238746,108.22206389707941,104.46462787971589,111.51259996004637,108.6251507054266,111.80978636963424,67.86989278371071,74.59290995611342,74.50497130810798,149.0978812642214,8,5,13
164,North Texas,Amer,8-4,100.82557590540775,300,100.71793356555696,46,0.5030709782300017,164,17.462373054703832,13.537626945296171,8.46237305470383,9.537626945296171,0-0,0.4027089786212242,107.4655260215981,109.96485739809668,105.27694072950224,105.20097559820104,82.70174942354366,110.55922961714651,65.38283773268114,65.922622687274,65.8522430708777,131.7748657581517,8,4,12
165,FIU,CUSA,6-4,108.34054995213475,163,108.45627102684705,173,0.49693082268246275,165,17.18685971336975,13.813140286630254,10.186859713369746,9.813140286630254,0-0,0.4172240096063854,111.20017265347508,108.48347551408214,104.1446629992872,103.74084107496435,110.33248105411978,112.38570051123803,72.30800765235023,78.33889314998792,78.42256875354627,156.7614619035342,6,4,10
166,Colgate,Pat,6-6,109.74715773625284,141,110.00797982486051,212,0.49317588382458544,166,20.34213778540829,10.657862214591715,13.59839678676548,4.401603213234519,0-0,0.4935150033149915,111.78289213500634,105.16290117843873,105.9240985925707,111.46845669893304,113.07184156296408,109.52138620612652,67.15744001589616,73.70338162587495,73.87854306357984,147.5819246894548,6,6,12
167,UT Rio Grande Valley,Slnd,5-6,105.77092071799584,203,106.27871333478332,136,0.48623400016001594,167,17.267957289264775,13.732042710735225,13.267957289264775,8.732042710735222,1-1,0.46778826947771895,109.88736274141914,104.79070796651067,106.70228808402769,108.5747054498546,107.51288146410215,103.5848345817741,69.5204600144803,73.53243064470196,73.88545040781219,147.41788105251413,5,6,11
168,Austin Peay,ASun,5-5,102.69196449900315,272,103.24869126996111,86,0.4844607864743604,168,18.456825492749296,10.543174507250704,12.456825492749292,5.543174507250705,0-0,0.474875710362707,109.67834356899024,108.47191310546901,102.39533792039497,108.0578620588283,0.0,0.0,69.89749036458352,71.77910599089226,72.16824403197965,143.94735002287192,5,5,10
169,UC Santa Barbara,BW,8-4,112.9063106345852,94,113.57869409706649,296,0.48293611179583334,169,17.955057789918452,13.044942210081553,11.212994911038342,8.78700508896166,2-0,0.36724846477558204,106.20337790033734,108.77514549283504,106.12645730860568,108.17443825096018,0.0,0.0,65.38655395081786,73.82554571696106,74.26519409241276,148.09073980937382,8,4,12
170,Toledo,MAC,6-6,112.18577237842862,103,112.86076300984996,285,0.48276059084529893,170,15.574683610487932,14.425316389512068,9.574683610487934,8.425316389512066,0-0,0.46536538273150807,110.12070738118034,106.78280953741606,108.78441683246572,108.87379230522568,110.67895258752968,118.50576380088155,70.62555518428285,79.23182458004105,79.70854046092425,158.9403650409653,6,6,12
171,Robert Morris,Horz,10-4,109.01257521444433,149,109.68808743474419,199,0.48224708240205233,171,20.534933398889844,10.465066601110152,12.53493339888985,7.46506660111015,2-1,0.37041172224398505,107.30345731182821,110.0217403544521,107.14743995118819,111.86932518312584,114.85169892131475,128.37120115355563,65.75891926960645,71.68549132898545,72.12970086458877,143.8151921935742,10,4,14
172,South Dakota St.,Sum,7-7,107.25971497909913,180,108.10022611432976,164,0.4775737265951141,172,17.215172099250722,13.784827900749274,10.19595431064635,5.80404568935365,0-0,0.3950165984207155,106.1920909602718,106.09361028515964,106.31280334672103,109.17438608591762,105.11817407737925,104.94780877962698,68.99483700608873,74.00366552302478,74.58357481079518,148.58724033381998,7,7,14
173,Incarnate Word,Slnd,6-6,112.7581253610949,96,113.6544448031079,300,0.4772525617614629,173,17.581518861116187,13.418481138883811,12.581518861116189,9.418481138883811,1-2,0.4301723526265351,110.47484637081931,106.4852346973375,106.19365926696283,108.47511108292973,110.37896874837666,99.7925915029018,66.20907791565324,74.65611507655728,75.24955991429282,149.90567499085012,6,6,12
174,Cornell,Ivy,6-5,115.47144066395762,71,116.57648238086085,339,0.4726449040922175,174,14.581665459137133,12.418334540862867,7.553732997302239,6.446267002697761,0-0,0.4087012861215683,106.96444602050842,109.1200248063476,103.00001789986452,103.98514356136431,97.37769245170475,96.16853484102981,73.56491492524972,84.94646708740065,85.75939008632902,170.70585717372967,6,5,11
175,Mercer,SC,7-5,107.96432447022465,168,109.06916671558886,188,0.47076188582658185,175,19.99188399665314,11.00811600334686,11.991883996653138,6.008116003346862,0-0,0.4815520019831669,111.69698612144029,106.9380656640968,103.5143625181055,107.38680573570042,101.55006505313955,97.74472339994041,70.93643274518281,76.58604041661187,77.36977609293501,153.95581650954688,7,5,12
176,Marshall,SB,7-5,107.3208791256452,179,108.64611029726422,182,0.46477447331048616,176,18.57422310595386,11.425776894046143,10.574223105953859,7.425776894046141,0-1,0.511062559059371,109.18698060575566,108.46757671970136,102.62339381772014,106.15303519574809,108.07694447334268,120.19020400167587,70.18663825617296,75.32491720526123,76.2550524137435,151.57996961900471,7,5,12
177,Saint Joseph's,A10,7-4,103.7065720299334,244,105.01366884194343,114,0.464052659779152,177,16.934143773762976,15.065856226237024,7.166613949539477,10.833386050460522,0-0,0.3647979859622754,105.27310888886481,111.11526668515731,100.95018458686918,101.10933076622831,93.9200389356097,104.58206389061428,69.31205681666319,71.88115812800118,72.78713381299036,144.66829194099154,7,4,11
178,Portland St.,BSky,6-5,102.16343160191002,282,103.45128373715491,88,0.4640469988632544,178,15.983480706218687,13.016519293781315,9.983480706218684,8.016519293781315,0-0,0.37145128480951384,110.45723033073651,109.70977199874528,108.25671403272864,110.5855235958889,104.94470783780785,103.19936142564417,69.76412314335508,71.27342223023385,72.17188097977042,143.44530321000428,6,5,11
179,Charlotte,Amer,6-7,109.94800473921451,134,111.36841159067345,254,0.4631629099453844,179,14.074765576795512,16.925234423204493,8.074765576795512,9.925234423204488,0-0,0.44231679887278513,107.48413991171975,108.37739964902265,108.56211752843261,108.11922276717883,106.47924316424269,113.58300789805338,63.58555363642104,69.91104752562799,70.81422108601781,140.7252686116458,6,7,13
180,Towson,CAA,7-5,105.34286965697166,218,106.71241717709393,141,0.4629315594860872,180,17.63949925842257,13.360500741577429,9.842736525246861,8.15726347475314,0-0,0.5086176070834176,112.38812444920625,105.65412587405521,108.63509012827502,108.74641363640703,94.5073779440036,103.27011243992011,63.497639608476575,66.89023572801109,67.75986607660515,134.65010180461624,7,5,12
181,Fordham,A10,8-4,105.72533445284172,205,107.35613206256758,153,0.45610538193484373,181,15.411869576817624,15.588130423182376,6.509741844016271,11.49025815598373,0-0,0.19465528788447992,102.70152953645523,114.2880180684928,107.24865612205484,108.49953400704088,0.0,0.0,64.53730363131328,68.23228011105192,69.28475291605291,137.51703302710484,8,4,12
182,Fresno St.,MWC,6-6,105.38257098888334,216,107.05941726296831,146,0.45473743055938803,182,12.134067704377529,18.86593229562247,6.134067704377526,13.865932295622475,0-1,0.43494520946500353,107.94060872781556,108.53868442922648,110.54559378440845,106.34445424663916,88.01359264983863,96.68535463206038,68.87062752600971,72.57763794308663,73.73249249469545,146.31013043778208,6,6,12
183,UC Davis,BW,6-5,107.9730928534698,167,109.7342128000968,202,0.4536187023824185,183,17.190909556952825,13.809090443047172,10.190909556952828,9.809090443047175,0-1,0.5123215367628083,108.57243885273245,105.72060270129616,103.55926542871732,104.65444273062036,89.16700453348469,131.5849971696731,69.78997168792841,75.35439093301723,76.58347604515868,151.93786697817592,6,5,11
184,Abilene Christian,WAC,7-5,103.70012143182174,245,105.4404136354554,125,0.45229774061331796,184,16.556054398682246,14.443945601317749,8.980310275163951,9.019689724836049,0-0,0.4278422538827528,109.81113472134287,104.3116171161479,106.52618824957011,106.1025035759051,106.03597121364227,104.96530665209406,66.365458981895,68.82106155301096,69.97601446157857,138.79707601458955,7,5,12
185,Buffalo,MAC,10-2,111.5997496935957,108,113.59692217934536,298,0.4491804742881212,185,19.45297773589454,10.547022264105461,9.452977735894537,8.547022264105461,1-0,0.3160574862743864,104.66602987373818,111.1817333070304,103.17102749101046,106.53792694398027,0.0,0.0,66.9531647622618,74.71956428662489,76.05673447159542,150.77629875822032,10,2,12
186,Vermont,AE,8-6,113.04877573546713,91,115.22061161241074,328,0.4455081032192536,186,21.07252504058005,9.92747495941995,12.552182358503464,3.44781764149654,0-0,0.41619795911605045,106.67874856277238,107.18297834362772,101.81801223893328,110.77985242305918,0.0,0.0,66.12016798829782,74.74804042500493,76.18406195527017,150.9321023802751,8,6,14
187,Southern Miss,SB,7-6,107.64160447402693,174,109.71857384850634,200,0.44527473081619207,187,16.391402618953602,13.608597381046392,10.332037026753211,7.667962973246791,1-1,0.3945410686031289,107.2503900877302,108.43766808824677,105.70419533450531,108.91726225749574,103.68579860025221,101.7935003581071,67.5122241823909,72.67124132602757,74.0734495463257,146.74469087235326,7,6,13
188,Idaho St.,BSky,7-6,108.64730008669713,153,110.75561333850564,234,0.4449685409174419,188,16.643099536028664,14.356900463971337,9.643099536028663,8.356900463971337,0-0,0.42035278281567956,109.57995564004027,107.35310039986567,107.63744791556769,109.15956365353887,101.67733910301256,101.01262463469818,63.88268682380355,69.40681445690277,70.75366160882035,140.16047606572312,7,6,13
189,Tarleton St.,WAC,9-4,105.63200613488263,207,107.78970411792437,159,0.4421259541167384,189,17.800027660396736,13.199972339603264,8.800027660396736,9.199972339603264,0-0,0.35428328270016807,107.47104467714756,106.62795261221449,105.62408798584892,106.41860847706714,108.75061514052003,115.24445486791446,71.4327861756719,75.45588507540333,76.99718886194631,152.45307393734964,9,4,13
190,Florida Gulf Coast,ASun,5-7,110.0133643927394,133,112.48452518281327,278,0.43648037102550813,190,17.510100284839236,13.489899715160767,11.510100284839236,6.489899715160764,0-0,0.4637968477964049,110.59434813120647,109.162885985475,102.51461505934428,107.23815966841565,113.05178902165949,123.72788939823201,70.57857643613985,77.64586647789865,79.38997658498084,157.0358430628795,5,7,12
191,Rutgers,B10,6-6,105.5814164342807,210,108.48688913966424,175,0.42258028421765653,191,9.921890888842796,21.0781091111572,2.9985954146368017,17.001404585363197,0-2,0.5111702543975228,108.40344822773893,105.79300656640747,112.87885585413366,103.53810075000808,104.69081264285212,112.09760137227472,66.64491602093351,70.36464631633847,72.30099616085246,142.66564247719094,6,6,12
192,Louisiana Tech,CUSA,6-4,100.31872394437433,309,103.21050342062321,84,0.4190169804688097,192,16.03055829489282,14.969441705107178,9.030558294892822,10.969441705107178,0-0,0.29271636129596035,104.21223801407743,110.1116938386379,102.56472955946275,104.83528193380438,0.0,0.0,64.16602870919093,64.37054120684122,66.22608125577757,130.5966224626188,6,4,10
193,UT Arlington,WAC,7-4,101.47540650683864,291,104.43307758868804,102,0.41814453987216305,193,15.959154013210894,14.040845986789101,8.377481449490102,9.622518550509898,0-0,0.42844948749547596,108.14670082941761,106.8927170859343,106.23135424631624,107.1009920185681,93.66645786080448,106.00099255333235,66.20538972016647,67.18218834797568,69.14032601435473,136.32251436233042,7,4,11
194,Ohio,MAC,5-7,107.54023512086263,177,110.76351231882967,235,0.41590129144700055,194,14.325277897479054,15.674722102520946,8.32527789747906,9.67472210252094,0-1,0.5269051728886068,108.94830387499968,105.10744600577021,104.70286821680018,104.94962825743093,110.90032545266705,116.11490506026944,69.86845284160727,75.13669846117348,77.38875237018935,152.52545083136283,5,7,12
195,Illinois Chicago,MVC,4-8,106.84747426558913,190,110.19414043095897,219,0.41224899641026996,195,11.798876376357189,19.201123623642808,6.79887637635719,13.201123623642811,0-2,0.45119154764890385,108.61113506533403,109.20974347509237,104.7005250953002,103.56834778462284,0.0,0.0,68.04950396500915,72.70917623687421,74.98656596177317,147.6957421986474,4,8,12
196,Cal St. Northridge,BW,7-5,107.6892439209807,173,111.06393084332848,244,0.4122074767198468,196,16.401707577117143,15.598292422882857,9.55042744834314,10.44957255165686,1-1,0.3976148596147884,105.66438000774053,106.80560045137022,106.63740464755627,108.20347565286042,0.0,0.0,74.0236512827206,79.71551038906514,82.21357686834746,161.92908725741262,7,5,12
197,Montana,BSky,6-7,107.1899289697332,183,110.73564498976948,233,0.407514450438474,197,15.962206819964097,15.037793180035907,8.962206819964095,9.037793180035905,0-0,0.3926744882543237,111.17827662025297,106.63961232788942,108.20623026117325,108.99011947958977,103.84913522197029,109.51997051121047,70.48667541578861,75.55461731131021,78.0538746535188,153.608491964829,6,7,13
198,Tulane,Amer,9-4,109.18803742500009,146,112.93685051232944,287,0.4041485128507608,198,15.109425151620549,15.890574848379451,6.109425151620549,11.890574848379451,0-0,0.4036432966407469,105.49884576379792,107.56351505360016,108.25283434399766,106.92844638347641,124.40560997579635,122.14140772845398,66.42452540363853,72.52763565710353,75.01776695863154,147.54540261573507,9,4,13
199,James Madison,SB,7-6,110.83299983907875,123,114.64305596314203,320,0.40403339596889887,199,16.023349004996525,13.976650995003471,8.986620681214008,9.01337931878599,0-2,0.37997071118153936,106.06122398432579,110.7996908771836,105.0653313559347,109.33778207691348,103.57788334611865,97.63999730118113,66.51316096360155,73.7185315837547,76.25272034635647,149.97125193011118,7,6,13
200,Charleston,CAA,7-6,107.94276045271727,170,111.6963429130593,259,0.4029705267832727,200,15.714263585818463,15.285736414181535,8.714263585818466,9.285736414181535,0-0,0.45404684657352246,108.44638333178627,109.75462102496023,107.47654322302198,109.81250007477884,117.95032824289393,108.45895116783271,67.95354957255026,73.3509372342164,75.90162975215148,149.25256698636787,7,6,13
201,South Alabama,SB,9-4,105.33645823072344,219,109.19879935436613,191,0.397924518512563,201,18.665415869620688,11.334584130379309,9.66541586962069,8.33458413037931,1-1,0.34501923377738836,103.92556267587742,110.52444871471488,100.50345532476773,106.32407747157511,0.0,0.0,66.14069614533084,69.67026676863613,72.2248460753208,141.89511284395692,9,4,13
202,Weber St.,BSky,5-7,108.51617225725983,158,112.60848826645828,280,0.3951522487443094,202,14.733373287916056,16.266626712083948,8.733373287916052,9.266626712083948,0-0,0.42861036469835173,105.55604810032455,106.74354706173511,102.64759233326433,105.11366820412069,119.71544182596128,117.22539928061727,69.83893603217027,75.78654012730739,78.64457008720576,154.43111021451315,5,7,12
203,San Diego,WCC,5-6,108.59029574817046,154,112.6862230820263,282,0.39513234516016155,203,10.837609498909085,19.16239050109091,5.7546268097068864,12.245373190293114,0-0,0.42252406429889044,108.0140972760286,109.26267712512046,109.2193825978688,105.8485676947898,110.94410041831304,108.57657873843841,69.40050798127116,75.362216867595,78.20481124383468,153.5670281114297,5,6,11
204,Georgia Southern,SB,10-5,109.74855724792579,140,113.95028498469605,305,0.39363476113293144,204,18.505099960947614,12.494900039052393,10.505099960947609,7.49490003905239,2-0,0.3103593982791758,103.41044873819494,109.745666803589,103.50267669297008,109.40681011388729,0.0,0.0,72.21812661772559,79.2583520344341,82.29276109150695,161.55111312594104,10,5,15
205,Valparaiso,MVC,6-6,103.1304943351958,259,107.15221326894753,149,0.391756352123732,205,12.481067398083326,18.518932601916674,6.481067398083323,13.518932601916678,0-1,0.3859003849185671,106.56757407711387,109.80055122277922,107.69512311125658,106.93382000950393,99.89520385638123,121.43140978603356,66.95301913128007,69.04897960242737,71.74164184954846,140.79062145197582,6,6,12
206,San Jose St.,MWC,5-7,107.54243730532698,176,111.7700303850225,262,0.39092727392217674,206,10.371075842199932,20.628924157800064,5.371075842199932,14.62892415780007,0-1,0.5044641568682796,110.72973576988466,107.86845213718743,111.24857349048723,105.9569584979638,105.11424350116827,109.14741014083212,65.47202700978484,70.41021359952461,73.17810448252665,143.58831808205127,5,7,12
207,Old Dominion,SB,4-9,106.01727614355903,201,110.34764765911197,226,0.3868937482229423,207,12.512178341328823,17.487821658671184,9.3320800218161,8.6679199781839,1-1,0.5121260410421683,109.2625767576954,107.17018301032074,106.50487193408522,108.68399227270311,123.46044748916441,118.38528078468718,69.37517459401322,73.54967042441119,76.55387322389548,150.10354364830667,4,9,13
208,Southeast Missouri St.,OVC,6-7,106.2309091480073,197,110.6094890615751,231,0.3859203033774455,208,18.421480837400033,12.578519162599965,13.421480837400033,6.578519162599967,1-1,0.42325480339663807,110.05258033615526,106.08496585627343,103.59392933545439,110.09619761974022,110.44013509704901,109.81618710072185,71.79327968038638,76.26665371164604,79.41017983502299,155.67683354666903,6,7,13
209,Southern,SWAC,4-8,105.57947419181627,212,109.960601857137,210,0.3851918345475297,209,15.881839119191783,15.118160880808214,11.858623500201471,6.141376499798529,0-0,0.5068367327320741,113.81178248450156,104.68667722292894,106.28306391451346,109.81889140291642,107.6089183265217,113.54666027714005,72.68224865782013,76.73753596371493,79.92183806743988,156.6593740311548,4,8,12
210,Rice,Amer,6-7,105.73737941741496,204,110.1786727299544,218,0.3838671442169678,210,12.78265571015459,18.217344289845407,6.782655710154586,11.217344289845414,0-0,0.4035089473958458,107.81533469653924,107.72872626672289,108.62554867614178,107.83671520224459,106.41655283162788,100.62301844931098,66.91888957104344,70.75828016765513,73.73034433499954,144.48862450265466,6,7,13
211,Northeastern,CAA,4-6,103.28484046162717,252,107.62532733611611,157,0.38381135233360036,211,12.330344039273823,16.66965596072618,8.161548138862887,9.838451861137111,0-0,0.4533199626603631,108.17482774824562,110.15638428011775,107.61029407437015,109.47128264818245,117.92433031811835,116.57497925485447,70.56102720662058,72.8788443784434,75.94153650285135,148.82038088129474,4,6,10
212,Queens,ASun,5-7,115.11895555161519,74,120.03085953509637,357,0.38213332056356714,212,16.137535666210994,14.862464333789006,11.079069515410472,6.920930484589527,0-0,0.5002406959645026,110.84088898440537,108.7305803665347,106.75235332561445,111.03208286617796,114.648450971668,126.89846498644913,69.1043766675269,79.55223666011103,82.94657729040314,162.49881395051418,5,7,12
213,Milwaukee,Horz,6-6,109.06942998311118,148,113.76167138755468,302,0.3812156566923203,213,15.024434315910693,15.975565684089307,10.957842064038456,9.042157935961546,2-0,0.46867338015459503,110.07211980456348,108.40346765976946,108.64422593483839,110.27561323881814,110.28447140624502,113.19875136010944,69.99383150879254,76.34187304997928,79.62615259259128,155.96802564257058,6,6,12
214,Navy,Pat,8-5,103.07120607511516,260,107.54634017188985,156,0.3801833224917935,214,19.865990411137332,11.134009588862668,11.86599041113733,6.13400958886267,0-0,0.30953409987845976,103.60620685771323,110.77364791440768,103.54423318856495,113.54259773675464,96.9258931075658,95.15729326453202,68.42762202718727,70.52917531194308,73.59140315689385,144.12057846883692,8,5,13
215,Purdue Fort Wayne,Horz,8-6,107.8830295935441,171,112.62546395605555,281,0.3787792465213847,215,16.46472465732427,14.535275342675734,10.464724657324268,9.535275342675734,2-1,0.43033184377837347,110.53594662629418,107.8561405377025,108.48265409722644,110.50669473618869,100.85671763549593,116.04495177583036,69.78411006099832,75.2852121086982,78.5946777238038,153.879889832502,8,6,14
216,Harvard,Ivy,6-6,105.57989272870374,211,110.22142594592067,220,0.37877083696655584,216,12.53237445229067,15.467625547709332,6.25162331628155,7.74837668371845,0-0,0.35593582226297177,104.03393699288883,109.396035293776,106.86293317313113,108.90074496600018,0.0,0.0,65.30571011479141,68.94969868491499,71.98088491263245,140.93058359754744,6,6,12
217,Grambling St.,SWAC,5-6,103.98568845474676,240,108.625567015238,179,0.3770671274627321,217,18.59651031531905,13.403489684680952,12.54631344453547,6.453686555464532,0-0,0.44047407516664044,108.1615793238853,107.31697674903937,100.87108493122791,107.22115195222295,105.58737831875686,110.91440634696359,68.73197514550294,71.47141754359667,74.66049772257503,146.1319152661717,5,6,11
218,Monmouth,CAA,6-7,105.48723308530316,213,110.24629987543715,223,0.37578897711621245,218,14.371635977414252,16.628364022585746,8.371635977414256,9.628364022585746,0-0,0.38433988392542406,105.2215495525437,108.57226636519302,105.68626034127725,108.994267802814,106.83190656771701,100.58105305235321,67.56632263252601,71.27384424254066,74.48937066425998,145.76321490680064,6,7,13
219,New Orleans,Slnd,3-8,107.57603156509482,175,112.46784814752064,277,0.37486551584084865,219,12.480742379156641,18.51925762084337,10.480742379156641,11.519257620843359,1-1,0.6542028922924327,112.81904641408745,104.17859857227577,107.70584412181341,107.01492083384807,101.20855226992629,102.96697329627052,71.4576514445007,76.87130567361152,80.36688291638563,157.23818858999715,3,8,11
220,Indiana St.,MVC,7-6,102.46249521014776,276,107.14216231284581,148,0.3743530207551374,220,13.039038797238828,17.960961202761172,6.039038797238828,13.960961202761172,0-2,0.38172668580188984,105.759142911861,106.91510866329631,107.45876158739154,106.23883759838976,102.3257643942865,113.11686925179666,70.35823666739309,72.09080487527207,75.3833361306345,147.47414100590657,7,6,13
221,Portland,WCC,7-5,103.7218780243585,243,108.58532213922462,177,0.3712246758074294,221,12.346231938418365,18.653768061581637,5.08829481729847,12.91170518270153,0-0,0.41289930980521844,109.23074519696759,109.35294928511796,110.40682332548239,106.06335248304086,103.32946061150892,115.81680665020518,71.50786015477274,74.16929548756224,77.64704030392622,151.81633579148846,7,5,12
222,Northern Kentucky,Horz,9-5,104.9212642874057,226,110.01543768699014,214,0.3669739577488184,222,17.2103637006106,13.789636299389397,9.210363700610602,10.7896362993894,1-2,0.29428723565607084,108.52660517555461,113.38657732820506,107.81899813039426,112.56407378538874,99.60350467164223,115.61579397661924,70.95541806270724,74.44732171180667,78.06191374432103,152.5092354561277,9,5,14
223,Cal Poly,BW,5-9,105.41508719538884,215,110.54875189959228,229,0.3665990788558032,223,12.603002594618259,19.396997405381754,8.603002594618255,11.396997405381745,1-1,0.4831831236120094,111.30091218329328,107.64134759017567,108.55959793192528,108.11085982541452,107.71307408531317,107.32799048972849,77.11047728162823,81.2860768632089,85.24467021865867,166.53074708186756,5,9,14
224,UTEP,CUSA,3-7,102.61470501994387,274,107.67648545190059,158,0.36500066563581696,224,11.301306638870923,19.698693361129074,7.875034505716366,12.124965494283634,0-0,0.44695460420877253,108.07331170709828,101.83713679302387,107.12662095725004,105.9040271074329,86.29738707781304,95.97670422449143,66.29512388009925,68.02854581217022,71.38425942007454,139.41280523224475,3,7,10
225,Central Arkansas,ASun,5-8,101.9505185527378,285,107.09324630730887,147,0.3621737543638186,225,15.41545198461359,15.58454801538641,10.41545198461359,7.584548015386413,0-0,0.451336004750937,110.33313070133413,106.62583145295201,107.05054420937584,111.20996343562163,100.60838885593088,110.4035816476315,70.57008961676591,71.94657230742462,75.57579989257172,147.52237219999634,5,8,13
226,Lindenwood,OVC,8-4,102.997246173018,266,108.2488046012335,168,0.3607994871146535,226,19.816852809357318,11.183147190642684,13.431658242736846,6.568341757263154,2-0,0.34061367236257695,107.40811500697815,108.20246879385756,103.11105688551632,110.58341915517448,90.14898750299673,105.18441294399516,73.54682579951407,75.75120522116622,79.61355975012556,155.36476497129178,8,4,12
227,Nebraska Omaha,Sum,7-7,107.94901917007232,169,113.49073478427097,293,0.35991928123578226,227,15.518537104417105,15.481462895582895,8.440958250113983,7.559041749886017,0-0,0.3831959943843596,110.02358320563287,108.10073845335646,107.4731642270558,110.06973152518759,102.02857880924203,112.18775983185844,68.5859733151544,74.0378854819567,77.83872507431275,151.87661055626944,7,7,14
228,LIU,NEC,6-6,105.94461262331893,202,111.39563932768714,255,0.35962892104901056,228,18.888116069423482,12.111883930576521,12.853417363063855,5.146582636936148,0-0,0.47502660933948077,108.7125563679004,108.88844412275745,103.83819545935516,111.80337739426187,91.04192223211543,115.34793490196795,71.12774668438617,75.3560156924685,79.23320815844977,154.58922385091827,6,6,12
229,Charleston Southern,BSth,8-6,104.1687731523838,238,109.75717479375953,205,0.354122434755047,229,16.71882942094415,14.281170579055852,8.598551671928842,7.401448328071158,0-0,0.28216609972470946,104.06368695837351,111.36609880676382,105.17082697342623,111.84824660249002,98.07632023767272,110.47961779441292,71.78027471491305,74.77263153593567,78.78400158628789,153.55663312222356,8,6,14
230,Texas St.,SB,8-6,101.53939948729484,290,107.01501514786818,145,0.35342772826160046,230,15.770441838581002,14.229558161419003,8.770441838580997,9.229558161419002,1-1,0.32342569835977536,104.27791161084338,109.6900369734832,104.47211958760965,109.96540621608504,0.0,0.0,67.14937798637565,68.1830751668196,71.85991702381916,140.04299219063876,8,6,14
231,Texas A&M Corpus Chris,Slnd,5-6,99.2376245925687,325,104.67426324118367,107,0.35129207335859536,231,14.683117006122457,16.316882993877545,10.68311700612246,11.31688299387754,1-1,0.45025577898759633,112.80940937472886,102.34743579148247,107.70787213473986,108.34040878054715,89.46866580193446,93.18703305474719,68.26278517897855,67.74236649234635,71.45356745400771,139.19593394635405,5,6,11
232,Stony Brook,CAA,8-5,103.49241927652764,249,109.175016133085,190,0.35098333981346214,232,15.98135864828841,15.01864135171159,7.981358648288411,10.01864135171159,0-0,0.36600677092873224,104.88244908502989,108.47385425880907,105.74631790269514,109.07743486690006,0.0,0.0,67.07279733364129,69.4152606370277,73.22673730991428,142.64199794694198,8,5,13
233,UNC Asheville,BSth,6-8,103.97664507366943,241,109.74635045190175,203,0.34953969452520117,233,14.52582529040632,15.474174709593685,8.52582529040632,7.474174709593681,0-0,0.39865505492831427,108.84089699315419,107.82553534957997,106.8446466214052,110.74533200816184,104.53742538704651,94.26264087972581,66.31125303112726,68.94821620807807,72.77418014058826,141.72239634866634,6,8,14
234,American,Pat,7-5,105.6441989779292,206,111.59884996420914,258,0.3473767763359076,234,18.320184993620117,12.679815006379886,11.29027481500532,6.709725184994679,0-0,0.3578706782887358,105.55903289169427,109.0589820685354,104.79669380841204,112.32038074137878,117.04484086736981,121.17654811770231,70.62978613548617,74.61627180265884,78.822029059383,153.43830086204184,7,5,12
235,Eastern Michigan,MAC,6-6,103.06601977893827,261,108.89608320693266,186,0.3468805452563408,235,13.291117076520369,16.70888292347963,7.104912856060671,10.895087143939328,0-1,0.48347401867740336,109.60476025395768,107.90060529802558,108.56537803866182,109.01820587432526,102.01167526462515,111.95038627910532,66.27734084158116,68.30941722073838,72.17342823019058,140.48284545092895,6,6,12
236,Penn,Ivy,6-5,106.16236681104212,198,112.21096432636529,273,0.3458736964796938,236,12.735091896549148,14.264908103450852,5.773686512732211,8.226313487267788,0-0,0.4028246806044175,107.02724375427678,109.15666384462145,107.02253587825037,109.00618298802117,105.80898006324313,120.05800506316916,70.80617735724782,75.16951373087848,79.45229441520428,154.62180814608274,6,5,11
237,Green Bay,Horz,6-7,106.96474098101925,186,113.15080359588828,289,0.34376616655110626,237,14.447063747222607,16.552936252777396,9.043424506685106,10.956575493314894,1-2,0.4978725829987013,111.39880679748461,107.01830999797711,108.85643992148668,110.29677547406814,100.93011759034442,127.27767320316168,65.17352340280995,69.71269049601962,73.74436546203377,143.4570559580534,6,7,13
238,Appalachian St.,SB,8-6,102.40806496049879,277,108.41816338549876,172,0.3416731645700263,238,15.511866079419013,14.488133920580989,8.51186607941901,9.488133920580992,1-1,0.3457187836723866,105.97046670449738,110.0099530564868,105.4597093894095,110.27538962263516,101.88447324552706,102.9012326870263,63.406572012913756,64.93344345621017,68.74424084210477,133.67768429831494,8,6,14
239,Wofford,SC,7-5,104.37438509482953,234,110.80636295525741,236,0.33454514985191913,239,17.66421914659843,13.335780853401575,9.664219146598427,8.335780853401573,0-0,0.3918845577704995,108.16739256323912,111.47081257648028,102.73226162523575,108.9180418518764,92.6019546137114,112.12072921743943,68.51095009996527,71.50788288946424,75.9144920318628,147.42237492132705,7,5,12
240,Missouri St.,CUSA,5-5,103.27107522147477,253,109.77503956534116,206,0.33128648033521774,240,12.790815067100032,18.209184932899966,7.176009633720503,12.823990366279498,0-0,0.3372478854271833,108.09327318187776,108.73672530460294,107.05539804838646,107.69222119779727,0.0,0.0,65.76661242037265,67.91788778325882,72.19532480524865,140.11321258850745,5,5,10
241,Bethune Cookman,SWAC,3-8,105.35922719132583,217,112.21098666905323,274,0.32638971011531664,241,14.156508779897298,16.843491220102706,11.079549485833297,6.920450514166706,0-0,0.583284462130204,112.40539118487595,104.91154072907474,106.24298212225692,109.12213203219393,105.63200178472617,117.09346737825629,67.28650166859549,70.89253816211077,75.50284741741996,146.39538557953074,3,8,11
242,Tennessee Martin,OVC,9-4,102.9049340252678,269,109.63840875634071,198,0.32543727740192596,242,20.358143923490438,10.641856076509566,12.358143923490434,7.6418560765095656,1-1,0.34701234691443283,106.42606684247671,108.60388177637269,102.53631559647879,111.06517332729261,0.0,0.0,65.87569284822189,67.7893382641508,72.22506139600502,140.01439966015582,9,4,13
243,Cal St. Fullerton,BW,5-8,104.94222013649957,225,111.88561182222907,267,0.32371046757675165,243,12.18347580360545,19.81652419639455,7.1324576590055075,12.86754234099449,0-2,0.4740926197013107,109.5969985868559,106.83728516670922,108.30971970676259,108.12467226924659,104.22138963749549,110.65243872346734,75.94876844712348,79.70232377474065,84.97574424851217,164.67806802325282,5,8,13
244,Lamar,Slnd,5-6,101.39897633171887,293,108.10949382348694,165,0.3236741210181863,244,13.515868819745362,17.484131180254636,8.515868819745362,13.484131180254636,0-2,0.3634481329796267,105.92266787192841,108.2202147222149,106.13098684014089,109.40328868402183,110.39691565453558,111.00522848383103,67.07641250504228,68.01479564015393,72.5159700341553,140.53076567430924,5,6,11
245,Jacksonville St.,CUSA,5-6,101.99836125262014,284,108.77631722181772,184,0.32303164287537783,245,11.850122645019907,19.149877354980095,6.850122645019907,13.149877354980093,0-0,0.275855603397424,104.50242883445712,109.51521966896632,106.46791209117086,107.92703055824036,0.0,0.0,64.78525765931646,66.07990114579036,70.47101738447004,136.5509185302604,5,6,11
246,Coastal Carolina,SB,7-6,98.27876844484823,337,104.8145216649578,111,0.32291239998156895,246,15.37652140241873,14.62347859758127,9.144051226642231,8.85594877335777,1-1,0.4015604418576857,106.80109980012024,109.553358890083,105.43295003644963,110.29813422788175,81.06105488994316,116.99032569813812,71.31456244712679,70.08707369486842,74.74801750641356,144.83509120128198,7,6,13
247,Brown,Ivy,5-7,97.70877827490855,343,104.22153236398653,100,0.32255285846630155,247,11.426076467442186,15.57392353255781,5.426076467442189,8.573923532557812,0-0,0.3229984883683496,104.55352155773186,111.17502277627264,102.84789935098948,106.49182443063022,0.0,0.0,67.33144136365499,65.78872875131373,70.1738599519603,135.96258870327404,5,7,12
248,Pepperdine,WCC,5-8,100.71016886702112,303,107.48675833057024,155,0.3210631730715322,248,9.382359725001791,21.61764027499821,4.382359725001793,13.617640274998207,0-0,0.36023163853638185,107.71659008290986,110.03566011658685,109.86921625025595,106.29955838374516,106.52589154516336,105.1087868525034,67.29882703205892,67.776762349511,72.33732757125766,140.11408992076866,5,8,13
249,Norfolk St.,MEAC,6-8,98.93512078958628,329,105.64912444401132,129,0.3197153118964749,249,18.706759493206878,12.293240506793122,10.940853331288269,3.0591466687117315,0-0,0.42303127060401974,110.00130402897376,106.75237932178743,98.0096880265331,107.20227395659784,98.5600286390369,105.58352892014668,67.82288819943805,67.1006563631001,71.65428755534697,138.75494391844705,6,8,14
250,Dartmouth,Ivy,5-6,103.19265271434764,254,110.24040582878455,222,0.3186990099666107,250,11.385715891165813,15.614284108834187,5.367855116466719,8.632144883533279,0-0,0.33758192790270614,105.47821942117756,110.8498297260622,103.4161062112402,105.23059074401678,0.0,0.0,71.79920346846518,74.09150268688113,79.15173328547075,153.2432359723519,5,6,11
251,UC Riverside,BW,6-7,106.29903834442787,195,113.6758948305761,301,0.3161343870250703,251,13.262284911068939,18.73771508893106,8.232488355371988,11.767511644628016,1-1,0.44814573640359867,107.62870708568629,105.64272171949051,107.61508472149102,107.58115601193414,88.13416200889031,108.14704013874575,68.48791060561433,72.80199035595946,77.85424523169712,150.65623558765657,6,7,13
252,Utah Tech,WAC,7-6,104.01981886963651,239,111.26391297069686,250,0.31556682324559465,252,13.534662754402705,18.465337245597297,6.487322964484539,11.512677035515459,0-0,0.39336030877638684,108.71043554760959,107.67374884032408,106.67290168953969,106.1652146088437,111.20610507947215,110.52886363778713,66.61542661239953,69.29324610145363,74.11893029107866,143.41217639253227,7,6,13
253,Nicholls St.,Slnd,3-8,103.15278315442612,257,110.35154495511831,227,0.31522816358801303,253,11.260318835914678,19.73968116408532,10.260318835914676,11.739681164085322,2-0,0.5317900692948516,111.52676003881841,106.947936043391,107.39952514769242,108.17366427909934,103.93331012748236,111.99969670960503,70.51067525116137,72.73372394255209,77.80961949794283,150.54334344049494,3,8,11
254,North Alabama,ASun,5-6,103.65060605616634,247,110.88976963909879,238,0.3151014684570573,254,14.552857978615705,14.447142021384295,9.552857978615705,8.447142021384296,0-0,0.432712334148869,108.85745838280516,107.1225692330819,106.18956647391151,111.43388407721194,106.15067212448058,117.8685612789242,67.62346020352027,70.09212633709922,74.98749924167126,145.07962557877048,5,6,11
255,Chattanooga,SC,6-7,106.34062702117123,194,114.10676736047387,310,0.30776215198925266,255,15.147164992923198,15.8528350070768,9.1471649929232,8.8528350070768,0-0,0.33968995529858464,107.70111829014738,109.73616469046985,105.9001867717944,111.86154126104536,114.13517209406493,116.03590547397832,65.5510704058837,69.70741928870613,74.79820741034216,144.5056266990483,6,7,13
256,Delaware,CUSA,4-7,104.27654526626809,236,111.96233889442118,269,0.30622340095667505,256,11.664152840969244,19.33584715903076,6.664152840969246,13.335847159030754,0-0,0.3758482669565119,105.6384423507067,108.56927812360159,106.35410473309538,107.49062051960172,135.39411547331648,114.21065504789007,65.19428002497244,67.98234292125797,72.99304074133758,140.97538366259556,4,7,11
257,USC Upstate,BSth,8-7,102.66323711244121,273,110.36381965135358,228,0.30326986301836134,257,15.761567650397101,15.238432349602899,7.761567650397099,8.238432349602899,0-0,0.36731949699451266,105.84514166648192,107.33292298430915,105.72586099191037,110.38582902813557,106.11380251298945,97.40143906917362,68.91144284147249,70.7467179619453,76.0533004967083,146.8000184586536,8,7,15
258,Hampton,CAA,6-7,103.8624191347181,242,111.81755256447644,265,0.2997022115386756,258,13.006518157350204,17.993481842649796,7.006518157350205,10.993481842649796,0-0,0.31153618112869813,103.84463452498426,109.12987618294214,105.5584884114237,109.26176659422269,88.43243045178264,113.70829458496847,67.14113378202646,69.73440578049012,75.0755725591029,144.80997833959302,6,7,13
259,Eastern Washington,BSky,2-10,108.44589458124679,161,116.76443157623379,341,0.29944715060485977,259,8.891877716216571,22.108122283783427,6.875871293893332,11.124128706106669,0-0,0.5282935134078336,109.38028719093326,105.96096510553315,108.20369937302051,107.75456425907456,111.06134121791926,101.02686405507893,70.28786932846603,76.22430867535276,82.07123108842934,158.2955397637821,2,10,12
260,Campbell,CAA,5-7,103.0106932190024,264,110.95411154240912,241,0.29853895989937046,260,12.682536207323398,18.317463792676595,7.086175447860899,10.913824552139102,0-0,0.5208232577392963,111.37839474209257,104.38308815018608,108.29780988859991,108.02110248037599,99.26221678661342,110.81857920068313,72.300216352747,74.47695406380322,80.22006269743004,154.69701676123327,5,7,12
261,La Salle,A10,4-9,100.84775608697822,298,108.64217695162868,180,0.2981446811707246,261,7.96277680711816,23.037223192881843,3.96277680711816,14.037223192881838,0-0,0.46991655597226034,110.17745270528106,109.0718586316559,110.55503757250473,106.65866147522826,94.90121700507173,108.47785019940076,65.81353009014968,66.37146829754417,71.5012518186538,137.87272011619797,4,9,13
262,Sacramento St.,BSky,4-7,103.01618528330854,263,111.0760763684678,246,0.2960276778915204,262,11.054153442014021,18.945846557985977,6.806184206908663,11.193815793091337,0-0,0.46661229142350186,113.0359414202875,105.81713912781545,108.98844260357374,108.83159500020093,100.624545892686,110.91154058155979,72.4708674158019,74.65672305348336,80.49779603566716,155.15451908915054,4,7,11
263,Tennessee St.,OVC,7-5,100.83960767137565,299,108.88376347673184,185,0.29263479689394245,263,17.311951695983392,12.688048304016606,11.311951695983394,8.688048304016608,1-1,0.3947593441605604,109.31489567204383,106.96537222476971,103.50577496733995,110.5083802690158,85.81079208169358,100.58184423052982,72.59066005056508,73.20013680105184,79.03944259565576,152.2395793967076,7,5,12
264,Wagner,NEC,4-6,103.00182651813617,265,111.27857503171543,251,0.2913502511118752,264,16.625577046957087,12.374422953042915,11.625577046957085,6.37442295304291,0-0,0.43558511573093817,109.01071231042711,107.09653874169763,98.89907281999429,108.05748379882358,109.74284671302681,108.0652128050259,67.96833701184471,70.00862857620243,75.63419689953483,145.64282547573725,4,6,10
265,Fairfield,MAAC,7-5,104.67203420196806,230,113.11408506740082,288,0.29069794291776274,265,17.152179610821364,13.847820389178635,9.152179610821364,10.847820389178635,0-2,0.3426144750581204,104.15415175480923,111.09824859414853,99.27377848713267,106.7199978572233,101.76248552085752,110.99393141762337,68.71524387611433,71.92564357197216,77.7266194122999,149.65226298427206,7,5,12
266,Radford,BSth,6-8,105.5979403127362,209,114.13031624228519,313,0.29037290842402264,266,14.537678177462782,16.46232182253722,7.537678177462779,8.462321822537223,0-0,0.37234501937783043,106.59997364763012,111.06078508164359,102.19009259126433,107.86222637151575,99.93521485535565,100.50117487438129,73.83480133659782,77.96802944544791,84.26789226232209,162.23592170777,6,8,14
267,Princeton,Ivy,3-10,99.70532765238801,320,107.80574484790945,160,0.28940282781368354,267,8.558699089614088,20.441300910385912,4.917334684569837,9.082665315430166,0-0,0.4508027697758912,109.01943316303577,108.67428502345963,109.1935177753581,109.73745385518347,96.57674425258337,103.34328421452913,67.31441412663308,67.11605716224487,72.56880553922318,139.68486270146803,3,10,13
268,South Dakota,Sum,7-7,107.11450393920279,184,115.89351238387836,333,0.2878408122143487,268,15.220307523959193,15.779692476040807,7.220307523959194,8.779692476040806,0-0,0.3752409274645627,106.33429429586732,109.39376953112178,102.09730552748857,106.75116211669939,107.2304135357482,120.59431982477967,72.44777604673632,77.6020759274462,83.96227230456881,161.564348232015,7,7,14
269,Evansville,MVC,4-9,100.69375031394839,305,108.97975424097415,187,0.28712233061599934,269,8.36727215440479,22.632727845595213,4.367272154404788,15.632727845595214,0-2,0.4869882636657695,111.02308048558811,106.49658820348454,109.5722511752541,105.61010921759069,97.71189588392862,108.0116170905183,69.03865647606965,69.51761237211812,75.23815815889108,144.7557705310092,4,9,13
270,SIU Edwardsville,OVC,7-5,100.982614073675,296,109.31144458521364,193,0.28671212316944306,270,17.8514863234869,13.148513676513103,10.851486323486894,9.148513676513106,0-1,0.26856118063544027,104.99604580656515,110.6395135242258,102.21028679384565,111.74051262173779,115.9336542649358,126.07466896450065,66.45413431019352,67.10712198646436,72.64197420107064,139.749096187535,7,5,12
271,Houston Christian,Slnd,5-7,106.70719789144073,193,115.55990308023122,332,0.28566038715760567,271,12.310089842920044,18.689910157079957,8.300592755225281,13.699407244774719,1-3,0.336542089709248,105.72330713269734,110.65812736541322,106.02504757001137,109.1194819546722,0.0,0.0,63.8602163724548,68.14344745845757,73.79680414683472,141.9402516052923,5,7,12
272,Sacred Heart,MAAC,5-7,105.47489604897507,214,114.22676290730203,315,0.28563169573802893,272,14.696362704048255,16.30363729595174,10.49312543722397,9.506874562776028,1-1,0.37612631709954525,106.96852665443225,110.51997629986609,103.14137438201546,110.0824017258202,101.12127440865183,125.88081640557313,69.31631366350307,73.11130978156136,79.17778126449144,152.28909104605282,5,7,12
273,Southeastern Louisiana,Slnd,4-8,100.14422988416064,313,108.64218376422436,181,0.28157637712085565,273,10.876130910292762,20.123869089707245,7.87613091029276,14.12386908970724,1-2,0.42730636541544736,106.71222762536127,108.28560499351043,106.37522571928736,108.57378729182463,110.78013279521907,114.78997386363278,66.24520142419306,66.34074680146915,71.9702334662524,138.31098026772156,4,8,12
274,UNC Greensboro,SC,4-9,104.35633718722363,235,113.42067832657037,292,0.2773064308600897,274,12.527407448190784,18.472592551809218,8.527407448190782,9.472592551809218,0-0,0.4240215935891892,109.62771258967454,108.80071107122703,106.82991258148519,111.48074166399613,98.61336935514247,105.98686866120762,68.62897255487036,71.61868200748768,77.83944620028977,149.45812820777746,4,9,13
275,Alabama St.,SWAC,3-8,106.03076464420576,200,115.3197812876103,330,0.27572514133553844,275,13.353414196513013,17.646585803486996,10.196726805693123,7.803273194306879,0-0,0.5236808240820648,108.91196172116659,105.51595512373747,104.1411320192329,109.57523034665542,126.08617151314373,125.4590300025772,68.52792879297347,72.66068689402661,79.02625760498633,151.68694449901295,3,8,11
276,Detroit Mercy,Horz,5-7,104.91280782652689,227,114.11497158598036,311,0.2755020460757837,276,11.346351555683222,17.65364844431678,8.346351555683222,11.653648444316778,2-1,0.3883881896951858,107.81709910608943,108.93227892691239,107.93573770712932,110.46974981322744,99.0396154753958,108.56789670102249,69.78145355956337,73.20968227150182,79.63108590177983,152.84076817328165,5,7,12
277,Drexel,CAA,6-7,103.16981490817847,256,112.25829229376599,276,0.27470116937026284,277,12.501131070182147,18.498868929817856,6.501131070182146,11.498868929817853,0-0,0.29545847634025585,102.02714236565959,110.59500657392589,104.57414897217913,109.66730672805438,0.0,0.0,66.2297261996094,68.32908593433041,74.34835962251843,142.67744555684885,6,7,13
278,Samford,SC,7-6,104.18386991222349,237,113.52390293987666,294,0.2714367897170464,278,15.403632556367258,15.59636744363274,8.403632556367254,9.596367443632744,0-0,0.4180846112543065,108.41134350293781,108.58043567266677,106.38042549858574,111.39006998776193,103.67852241511568,99.8316927737523,67.36094849132714,70.17924294784413,76.47077778467454,146.65002073251867,7,6,13
279,Eastern Kentucky,ASun,4-9,104.74425533966524,229,114.15038301948809,314,0.27112097542804386,279,12.156291389349445,18.843708610650562,8.156291389349446,9.843708610650554,0-0,0.4663395530367094,110.21345565982878,106.57414537268984,106.8397511464011,110.02614380451749,109.20752770864607,113.48319677197797,69.11572615360994,72.39475268220099,78.89586613104626,151.29061881324725,4,9,13
280,East Carolina,Amer,5-7,99.41314224488411,323,108.39594329127706,171,0.26996050646581404,280,9.827254364709896,21.17274563529011,4.807228222513105,13.192771777486893,0-0,0.397827919349121,106.90126463142578,109.2871846119199,109.14431173769674,108.07390334948757,93.41936389077317,110.77400719329307,70.64967088115672,70.2350578086268,76.58137718381252,146.81643499243933,5,7,12
281,Northern Arizona,BSky,5-7,100.70548965083985,304,109.93055098672538,209,0.267379715688053,281,12.21151265134148,18.788487348658524,6.211512651341476,11.78848734865852,0-0,0.42669320334192457,109.86954486875257,108.12711622100691,104.5733811998178,105.7192436280714,82.75024005613326,101.90992789663325,67.19960776628668,67.6736940444828,73.87289907839724,141.54659312288004,5,7,12
282,Long Beach St.,BW,3-10,105.04488448976763,223,114.76347153477383,321,0.2654983969481946,282,10.231496396273117,21.76850360372688,6.231496396273119,13.768503603726883,0-2,0.527629749606386,110.17448359602484,106.00174219277868,104.15581133704167,103.96286627883822,81.57033146498799,101.74018037640269,68.65064167684463,72.11398725092572,78.78585961924516,150.89984687017088,3,10,13
283,Merrimack,MAAC,6-7,101.57969886512927,289,111.0683086659522,245,0.26367203158761526,283,13.528982268123213,17.47101773187679,9.528982268123217,10.471017731876783,2-0,0.4390528784526205,106.91494832021075,109.15865210909247,104.5712523708505,109.00853275987728,87.76499786810547,113.3928710881655,65.19795679254355,66.22788817608284,72.41426789423643,138.6421560703193,6,7,13
284,Western Michigan,MAC,5-7,105.127727073069,222,115.00017599286355,324,0.26265541018932387,284,12.294714847218543,17.705285152781453,5.294714847218544,12.705285152781459,0-1,0.3846571947409747,106.46519361930036,108.70848966266227,104.3048003323367,105.39970889043403,87.13638884209384,118.20964931688145,69.52808996456824,73.09330065706916,79.95742582372996,153.05072648079914,5,7,12
285,Denver,Sum,7-7,111.56873691772606,109,122.07603299779603,361,0.2621087894613321,285,13.80740597462155,17.192594025378447,6.746518229469727,9.253481770530271,0-0,0.460895496195961,111.4345459182517,106.53285465071045,107.98720206867145,108.94707631017863,109.83661455147788,113.73366083152662,68.98942341230693,76.97062830793283,84.21955128979704,161.19017959772987,7,7,14
286,Howard,MEAC,9-5,99.12123478974073,327,108.500759576713,176,0.2611972681875065,286,20.38404749556398,10.61595250443602,10.170937055149407,3.8290629448505937,0-0,0.3032622150699681,105.59427771291176,109.72972359049965,97.72985345855594,108.52514142284305,91.92167384723463,115.36451304879522,69.25127441258725,68.64271830538826,75.13815875421105,143.7808770595993,9,5,14
287,Tennessee Tech,OVC,6-7,102.86436004568046,270,112.85251997855539,284,0.2562194045902288,287,15.53306620493137,15.46693379506863,10.533066204931368,9.466933795068632,1-1,0.3838417771984029,108.33995267943476,107.26476755003429,103.2204244684115,110.20528856204278,102.5389004755085,119.57957677013445,70.61982761029648,72.64263373669422,79.69625506273121,152.33888879942543,6,7,13
288,Texas Southern,SWAC,1-8,102.2989615101852,279,112.51598446397408,279,0.2507246145517102,288,12.406788022496237,16.59321197750376,9.982532146014535,8.017467853985465,0-0,0.6286934005008997,115.77889378973225,102.36884261896772,101.33919750761794,105.88513462894717,104.42424307057736,117.94472208990764,71.18948848857706,72.82610742822717,80.09955380778997,152.92566123601716,1,8,9
289,Northwestern St.,Slnd,3-8,106.10338104145475,199,116.74973914787947,340,0.24981192033651248,289,10.448032637459026,20.551967362540974,8.448032637459027,13.551967362540974,1-1,0.5250355720164345,109.85676589840268,103.15461099923122,106.560488141522,107.46412383163681,106.78464930853397,117.29250745625896,66.56945801989305,70.63244570007838,77.71966859038227,148.35211429046063,3,8,11
290,UMBC,AE,6-6,103.49941696013775,248,113.97394416281682,306,0.24812365353414548,290,16.38835536992557,12.611644630074435,9.570608331489423,6.429391668510577,0-0,0.3645899363320486,106.57102066131206,109.93489102279887,101.86789952437968,112.70275023862636,110.51893501896379,113.21083590565544,67.06369476595127,69.41053307468599,76.43513802606721,145.84567110075318,6,6,12
291,Saint Peter's,MAAC,4-5,100.63431109874458,306,110.9183950674059,240,0.2462029255363099,291,12.151322480163586,15.848677519836412,9.151322480163584,10.848677519836416,2-0,0.3883430065099866,104.17582776023391,110.1525162616968,99.97119462292561,105.78280537390968,97.74679748634216,110.92679305030398,66.13134107868467,66.5508195148954,73.35182216102915,139.90264167592454,4,5,9
292,Presbyterian,BSth,6-8,99.85886859405866,318,110.22687234029783,221,0.2430550278096886,292,13.666932311892435,17.333067688107565,6.666932311892435,9.333067688107564,0-0,0.3633748865148439,106.18295926441078,109.04915095109084,102.41333296501381,107.29902906935489,98.61240543670925,107.42958293753709,63.54626182256928,63.45657808983592,70.04505689619485,133.50163498603078,6,8,14
293,UTSA,Amer,4-7,99.64558185894441,322,110.0098705791608,213,0.24270072294471084,293,8.612423179352698,21.387576820647297,4.378288098614736,13.621711901385266,0-0,0.43627475937192234,111.5706469227535,108.16476883771354,110.09685746146387,107.72298414967555,95.83224887513572,107.58176632904856,69.9048001057277,69.65704481268436,76.90218012493212,146.55922493761648,4,7,11
294,Alabama A&M,SWAC,6-6,101.08308288941072,295,111.89837137965691,268,0.23704388631426207,294,16.351662084923003,14.648337915077002,9.351662084923001,8.648337915076997,0-0,0.4090774694974957,107.11443794474886,106.15023285042454,99.7383042725446,106.87085817023207,86.289106453623,120.33674616568585,65.79862711290009,66.51128078462708,73.62759212950857,140.13887291413565,6,6,12
295,Bellarmine,ASun,5-6,107.09290812106335,185,118.59503150566537,345,0.2362761358124734,295,12.379350197287216,17.620649802712787,7.362235222794993,10.637764777205007,0-0,0.4131869963868695,110.4645076482158,109.52791912763566,106.96834157058606,110.38942087376849,102.23515292169948,117.67134462495015,66.73564329588757,71.46914115886544,79.14515719226632,150.61429835113177,5,6,11
296,Le Moyne,NEC,5-7,108.18097115272988,164,119.93467281677067,355,0.23395184061187443,296,15.500261193809072,15.499738806190926,10.379301869850595,7.6206981301494086,0-0,0.4059142854950836,105.73600479870183,109.0025820346036,101.83960085077257,111.41121210136164,84.49823301752625,108.50613858013864,69.4843295819626,75.16882254073072,83.33580334305344,158.50462588378417,5,7,12
297,Bucknell,Pat,3-10,99.21502002950963,326,109.99560335173919,211,0.23393274940700973,297,11.92315200597228,19.07684799402772,8.92315200597228,9.076847994027721,0-0,0.5238135854579569,109.71425417192859,107.43223094642683,106.35845688257457,111.80469945971811,96.2825232908606,114.54318439674302,67.87242775143147,67.33964278809718,74.65668641466031,141.9963292027575,3,10,13
298,Western Carolina,SC,4-7,101.75137294135334,287,112.92943991086676,286,0.2317145483489051,298,11.523717346445364,17.476282653554637,7.523717346445363,10.476282653554637,0-0,0.5099098257585487,110.78295659589475,103.87225667497128,107.20070978634995,110.07283234735323,104.36023466484353,117.83743872343982,71.59991623400322,72.85389779295721,80.8573843797096,153.7112821726668,4,7,11
299,Mount St. Mary's,MAAC,3-9,100.30126473735946,310,111.32800557610241,252,0.23156786564148346,299,12.365468079164865,18.63453192083513,8.365468079164867,11.634531920835133,0-2,0.45202798037637026,105.56058876175757,107.52230543712739,99.77694593650486,105.97499882175622,94.57804033899558,109.9705759153249,69.5598311829536,69.7693904256746,77.439572738086,147.2089631637606,3,9,12
300,East Texas A&M,Slnd,6-6,100.41219694202576,308,111.49689121773272,257,0.23072893895051788,300,12.976082291784632,19.02391770821537,7.976082291784634,14.023917708215366,1-1,0.4680898325135337,108.54504749262635,104.55855391879497,106.61253687145441,108.13864423908785,99.85282883996662,118.9992729563683,71.47654755214512,71.77117169542066,79.69412847040624,151.4653001658269,6,6,12
301,Manhattan,MAAC,5-8,106.85183688850019,189,118.70745254486044,347,0.22969795778020874,301,13.044300869930312,17.95569913006969,9.044300869930309,10.95569913006969,1-1,0.4090386198830006,105.16224877643606,107.92348664504318,102.72699680697701,109.07187153131521,108.2646831823603,124.2344274079003,70.23358132132834,75.0458717544179,83.37249521757181,158.4183669719897,5,8,13
302,Central Connecticut,NEC,6-5,100.50513735292066,307,111.77275574017978,263,0.22758845993371085,302,16.22559718328262,12.77440281671738,10.22559718328262,7.77440281671738,0-0,0.3869790911033333,105.41086853548519,107.13909488937048,101.92149862245236,112.00160167489194,110.0303849278274,115.6337393088998,66.84900778698794,67.18668709537685,74.71897818848379,141.90566528386063,6,5,11
303,Boston University,Pat,5-8,110.10371177854407,131,122.77993257651127,365,0.2221528198818089,303,13.633177007927847,17.36682299207215,8.633177007927845,9.366822992072155,0-0,0.3673469222714412,104.22665525718992,108.79881325512396,103.32564462376435,111.64479271865584,90.51783831375714,116.78034093517705,63.682665505569716,70.11697848114679,78.1895337706637,148.3065122518105,5,8,13
304,Oral Roberts,Sum,5-9,102.53777779889609,275,114.39173656900587,316,0.22130599740008,304,11.360788068778868,19.63921193122113,5.94246063249966,10.05753936750034,0-0,0.4730759927426491,111.81950889192994,107.06738476918663,108.00480732360165,109.6283556678202,96.95659114777187,111.79848677756563,69.48202255225942,71.24532189481462,79.48169220079785,150.72701409561247,5,9,14
305,UMass Lowell,AE,5-9,103.14209418380904,258,115.12841487083412,326,0.2202317287645309,305,13.793704151739725,17.20629584826028,8.782357479634848,7.217642520365152,0-0,0.39623927586969065,107.50917872236836,106.45689849840623,103.54488954186318,110.13577284401998,99.82402696441804,127.55817642952518,71.3104822697839,73.55112478562896,82.09862787394943,155.64975265957838,5,9,14
306,Albany,AE,4-10,103.03882311501975,262,115.14760461121885,327,0.217932903423268,306,13.007035759386788,17.992964240613215,8.942209574098106,7.057790425901894,0-0,0.4604345602596533,110.14728406902223,106.68636200982874,104.09151987764933,110.53462553892336,0.0,0.0,68.44829644036659,70.5283190944337,78.81657374826831,149.344892842702,4,10,14
307,Ball St.,MAC,3-9,98.78836343388744,330,110.66513827450132,232,0.2132267252411414,307,9.025614140947367,20.974385859052628,5.0256141409473685,12.974385859052632,0-1,0.3437863528296548,105.08215414197512,110.30332057918139,103.5253328525363,106.80704166218305,88.71998669224199,113.00188652557135,65.67540212007866,64.87965493305032,72.6797745685198,137.55942950157012,3,9,12
308,Morehead St.,OVC,5-7,100.15818754120522,312,112.25139243880187,275,0.2123385588738659,308,14.213165394553991,16.786834605446007,10.213165394553993,9.786834605446007,2-0,0.4055387072758689,108.5059007192672,108.68814164980662,100.28662124388332,106.76742142878321,100.87393332580913,112.28234638340753,67.9123842313455,68.01981316213491,76.23259693807464,144.25241010020954,5,7,12
309,Cal St. Bakersfield,BW,5-8,101.80230435307158,286,114.10542934861542,309,0.2121463221707234,309,10.388107992266793,21.611892007733204,5.09149643857558,14.90850356142442,0-2,0.409696680660597,106.00074384197879,108.24348730818838,106.41592708302016,108.36025206891536,92.17738159790237,108.98096048944747,70.97922044711224,72.25848202700682,80.99114423947763,153.24962626648446,5,8,13
310,Longwood,BSth,7-7,102.35004276748334,278,114.88302666216086,323,0.20941904862199137,310,13.991126315730162,17.008873684269837,5.9911263157301615,10.00887368426984,0-0,0.29285972336540395,102.59848802020092,111.40303700316764,100.75829836924092,107.9519367928462,100.22897217530361,90.74476789233742,70.79152890026303,72.45516010517454,81.32745102104049,153.78261112621504,7,7,14
311,West Georgia,ASun,6-5,100.71206055168965,302,113.57146795885296,295,0.20070119235335845,311,13.142923484527895,16.857076515472105,7.127105766662829,10.87289423333717,0-0,0.38843364416393167,108.29222657860309,108.76153502419373,106.60619472290497,111.47331824494998,100.31350962663082,104.98485705538992,69.23009674808492,69.72305695692461,78.62563714613417,148.3486941030588,6,5,11
312,Northern Illinois,MAC,5-7,103.33374059139959,251,116.53375260389961,337,0.2006085050901628,312,9.49426006948197,19.505739930518033,5.49426006948197,12.505739930518029,1-0,0.4254319932983131,107.24935935969843,107.54785671424952,108.13159390412363,109.1786835414731,98.39734026080218,119.39500283725869,68.62074449096555,70.90838210418147,79.96632862005588,150.87471072423733,5,7,12
313,Bryant,AE,3-9,98.44604440219035,333,111.062214057716,243,0.19993639873885652,313,12.59221092688678,17.407789073113225,8.532812405353322,7.467187594646677,0-0,0.48037106864458773,106.27495077986732,104.17464468900026,99.62432884835924,106.30662774832582,96.04916930541313,99.56273392850541,66.33452940278775,65.30372026985245,73.6725970395027,138.97631730935515,3,9,12
314,Mercyhurst,NEC,5-8,98.28902224155641,336,111.23458012333029,249,0.1942100099667403,314,14.356342526983397,16.643657473016606,9.356342526983394,8.643657473016606,0-0,0.40210906192000007,107.3658373515062,109.90708970680308,103.0565202440054,112.75330100780234,81.22745918573185,100.66106370380885,65.4642121253489,64.34413401614384,72.81884148867812,137.16297550482196,5,8,13
315,Eastern Illinois,OVC,3-8,98.74561649418443,331,111.76792687180344,261,0.19394260063662264,315,12.92746111466602,18.072538885333984,8.92746111466602,11.072538885333978,1-1,0.5064911162567023,110.30062689186624,104.50038088274827,97.43683564971201,102.09986624471742,96.63696813009221,114.89716918182314,66.45358490574864,65.62000209766778,74.27379418114894,139.89379627881672,3,8,11
316,New Hampshire,AE,4-8,96.85643481783178,345,109.62988278314812,197,0.19393804408187335,316,12.403225836188234,16.596774163811766,8.389757795790144,7.610242204209856,0-0,0.42630473146115033,108.90934081967464,107.68223816992322,104.21537395411899,111.28126405084107,103.86383742520337,109.29593220715797,68.36429487904171,66.21521870818934,74.94769634141915,141.1629150496085,4,8,12
317,Jacksonville,ASun,5-7,100.12571855443278,314,113.34960143014833,291,0.19363239941774749,317,11.853731172206171,19.146268827793822,6.785305826007546,11.214694173992454,0-0,0.44813851145513744,109.59630551191069,107.45334333860244,106.75117941914091,110.60960163199765,105.9301982598629,116.00113166779518,65.98872769099265,66.07168776553435,74.79795982656609,140.86964759210042,5,7,12
318,North Carolina A&T,CAA,7-4,99.97748649526338,317,113.31398141442472,290,0.1915450899154098,318,11.33333460762586,17.666665392374142,4.333334607625859,13.666665392374142,0-0,0.2731409685565595,102.7517463437918,111.58311755777952,106.11237110047168,110.19971139448191,0.0,0.0,71.13661616025226,71.12060081480355,80.6077320146789,151.72833282948244,7,4,11
